Date,Open,High,Low,Close,Adj Close,Volume
2015-09-22,66.879997,67.419998,66.660004,66.739998,62.113976,171700
2015-09-23,66.919998,67.059998,65.839996,66.680000,62.058136,359100
2015-09-24,66.269997,66.269997,65.160004,65.599998,61.053005,275300
2015-09-25,65.690002,65.690002,64.839996,65.529999,60.987858,412100
2015-09-28,65.139999,65.250000,64.099998,64.150002,59.703522,218700
2015-09-29,64.139999,65.000000,63.619999,64.940002,60.438755,445500
2015-09-30,65.510002,66.279999,65.309998,65.959999,61.388065,311400
2015-10-01,65.949997,67.430000,65.790001,67.239998,62.579315,569600
2015-10-02,66.639999,68.000000,66.160004,67.980003,63.268044,216000
2015-10-05,68.430000,69.029999,68.050003,68.410004,63.668232,271600
2015-10-06,68.529999,68.669998,67.610001,67.680000,62.988834,306300
2015-10-07,68.010002,68.730003,67.720001,68.680000,63.919514,222100
2015-10-08,68.760002,69.769997,68.500000,69.629997,64.803680,185000
2015-10-09,69.690002,70.699997,69.690002,70.260002,65.390007,252100
2015-10-12,70.309998,70.639999,69.919998,70.570000,65.678513,235100
2015-10-13,70.400002,70.879997,69.930000,70.160004,65.296928,257900
2015-10-14,70.110001,70.720001,69.570000,69.669998,64.840904,131000
2015-10-15,69.879997,70.110001,68.949997,69.690002,64.859520,236300
2015-10-16,69.690002,69.910004,69.260002,69.839996,64.999107,212500
2015-10-19,69.610001,70.040001,69.540001,69.989998,65.138725,186200
2015-10-20,69.910004,70.820000,69.910004,70.489998,65.604065,220400
2015-10-21,70.529999,70.800003,69.800003,69.870003,65.027039,194700
2015-10-22,70.279999,71.360001,70.209999,71.290001,66.348595,268300
2015-10-23,71.959999,72.169998,71.059998,71.400002,66.450989,256900
2015-10-26,71.300003,71.680000,71.050003,71.300003,66.357925,244900
2015-10-27,71.250000,71.320000,69.629997,70.949997,66.032181,281900
2015-10-28,71.059998,71.849998,70.720001,71.849998,66.869797,319200
2015-10-29,70.230003,72.349998,70.230003,72.339996,67.325821,391400
2015-10-30,71.620003,75.250000,71.620003,73.559998,68.461266,948300
2015-11-02,74.769997,75.879997,73.839996,75.720001,70.760132,432400
2015-11-03,75.779999,75.959999,74.669998,74.760002,69.863022,292000
2015-11-04,74.750000,74.750000,73.050003,73.230003,68.433250,423800
2015-11-05,73.330002,73.790001,72.989998,73.449997,68.638802,225300
2015-11-06,73.480003,73.480003,72.680000,73.260002,68.461281,288400
2015-11-09,73.050003,73.419998,71.820000,72.449997,67.704323,261900
2015-11-10,72.419998,73.040001,71.879997,73.040001,68.255661,293800
2015-11-11,73.320000,73.620003,72.910004,73.059998,68.274353,153800
2015-11-12,72.500000,72.910004,70.769997,70.800003,66.162407,304800
2015-11-13,70.680000,71.699997,70.570000,71.519997,66.835258,539600
2015-11-16,71.870003,72.180000,71.150002,72.099998,67.377251,196700
2015-11-17,72.290001,72.879997,71.790001,71.970001,67.255745,172600
2015-11-18,72.220001,73.510002,71.919998,73.430000,68.620148,181300
2015-11-19,73.320000,73.779999,72.750000,73.680000,68.853752,138600
2015-11-20,73.940002,74.550003,73.720001,74.290001,69.423798,157300
2015-11-23,74.239998,74.519997,73.699997,73.849998,69.012619,239000
2015-11-24,73.410004,74.720001,73.139999,74.279999,69.414452,226100
2015-11-25,74.430000,75.559998,74.220001,74.870003,69.965813,265300
2015-11-27,74.800003,75.360001,74.300003,75.010002,70.096649,65200
2015-11-30,75.169998,75.489998,74.070000,74.480003,69.601341,278700
2015-12-01,74.699997,75.279999,74.570000,74.970001,70.059258,125300
2015-12-02,74.800003,75.269997,73.730003,73.930000,69.087379,156900
2015-12-03,74.309998,74.589996,72.919998,73.459999,68.648178,182700
2015-12-04,73.500000,74.519997,73.500000,74.349998,69.479874,89500
2015-12-07,74.029999,74.599998,73.629997,74.220001,69.358383,242800
2015-12-08,73.500000,74.059998,73.129997,73.599998,68.778999,225000
2015-12-09,73.269997,74.440002,72.849998,73.080002,68.293068,235500
2015-12-10,73.239998,73.699997,72.730003,73.430000,68.620148,175500
2015-12-11,72.720001,73.559998,72.239998,72.860001,68.087471,169300
2015-12-14,72.769997,73.300003,72.400002,72.550003,67.797791,246800
2015-12-15,73.000000,73.410004,72.470001,73.059998,68.274353,185300
2015-12-16,73.360001,73.809998,72.589996,73.449997,68.638802,191200
2015-12-17,73.580002,73.949997,72.260002,72.260002,67.526772,160400
2015-12-18,72.260002,72.260002,71.089996,71.110001,66.452103,809900
2015-12-21,71.480003,71.980003,71.209999,71.660004,66.966080,224100
2015-12-22,71.839996,72.510002,71.400002,72.309998,67.573494,122300
2015-12-23,72.839996,73.519997,72.449997,73.459999,68.648178,216500
2015-12-24,73.230003,73.639999,72.760002,73.300003,68.498642,78800
2015-12-28,72.980003,73.940002,72.910004,73.709999,68.881790,137500
2015-12-29,74.000000,74.470001,73.599998,74.040001,69.190186,80800
2015-12-30,73.900002,74.320000,73.000000,73.620003,68.797699,100800
2015-12-31,73.269997,73.940002,72.620003,72.650002,67.891243,157800
2016-01-04,72.000000,72.209999,71.230003,72.080002,67.358566,288300
2016-01-05,72.080002,72.080002,71.010002,71.669998,66.975403,323800
2016-01-06,70.699997,71.589996,70.360001,71.180000,66.517517,389900
2016-01-07,70.019997,70.709999,69.599998,69.760002,65.190521,321200
2016-01-08,69.959999,70.629997,69.669998,69.879997,65.302681,565000
2016-01-11,69.930000,70.360001,69.070000,69.820000,65.246582,312000
2016-01-12,70.309998,70.919998,69.330002,69.839996,65.265282,286700
2016-01-13,70.129997,70.830002,68.889999,68.910004,64.396217,379900
2016-01-14,69.099998,69.180000,68.129997,68.750000,64.246689,439100
2016-01-15,67.519997,68.260002,67.000000,68.070000,63.611210,344200
2016-01-19,68.849998,68.849998,67.300003,68.120003,63.657967,221800
2016-01-20,67.349998,68.410004,66.330002,67.830002,63.386959,252300
2016-01-21,67.900002,68.339996,66.690002,66.699997,62.330967,323100
2016-01-22,67.480003,68.320000,67.190002,68.250000,63.779434,252600
2016-01-25,67.669998,67.760002,66.639999,66.860001,62.756332,330300
2016-01-26,67.639999,70.620003,67.570000,70.489998,66.163528,582200
2016-01-27,70.239998,71.650002,69.720001,70.250000,65.938263,491100
2016-01-28,70.820000,71.320000,70.410004,70.669998,66.332504,420800
2016-01-29,70.860001,72.910004,70.860001,72.900002,68.425613,796100
2016-02-01,72.290001,72.690002,71.589996,72.309998,67.871819,284400
2016-02-02,71.480003,71.790001,70.800003,71.320000,66.942612,325700
2016-02-03,71.809998,73.169998,70.580002,73.150002,68.660271,433000
2016-02-04,73.010002,73.720001,71.879997,72.239998,67.806137,365600
2016-02-05,72.980003,74.660004,70.480003,71.120003,66.754875,281400
2016-02-08,70.559998,73.059998,69.879997,73.029999,68.547646,521700
2016-02-09,72.489998,75.269997,72.300003,74.410004,69.842934,581100
2016-02-10,74.680000,75.529999,73.449997,74.190002,69.636444,362700
2016-02-11,73.190002,75.019997,73.190002,74.320000,69.758461,526900
2016-02-12,74.820000,75.650002,73.699997,75.300003,70.678314,306400
2016-02-16,76.050003,76.190002,73.470001,73.949997,69.411179,386700
2016-02-17,74.250000,74.669998,73.169998,73.370003,68.866768,374100
2016-02-18,73.500000,73.750000,72.980003,73.300003,68.801071,260400
2016-02-19,73.300003,73.760002,71.559998,72.879997,68.406845,700700
2016-02-22,73.470001,73.879997,72.440002,72.800003,68.331757,387400
2016-02-23,72.849998,73.019997,72.050003,72.870003,68.397461,264900
2016-02-24,72.419998,74.120003,72.220001,73.910004,69.373627,220200
2016-02-25,74.000000,74.389999,73.480003,74.339996,69.777222,208700
2016-02-26,74.779999,74.949997,73.309998,73.330002,68.829231,159400
2016-02-29,73.500000,74.379997,72.980003,73.709999,69.185898,211600
2016-03-01,74.040001,75.080002,73.750000,74.500000,69.927414,233000
2016-03-02,74.389999,74.830002,73.820000,74.410004,69.842934,154800
2016-03-03,74.349998,75.250000,73.809998,75.199997,70.584450,354300
2016-03-04,75.199997,76.099998,75.139999,76.000000,71.335350,299600
2016-03-07,75.870003,76.419998,75.089996,75.720001,71.072540,216100
2016-03-08,75.720001,76.129997,75.120003,75.790001,71.138252,236800
2016-03-09,75.949997,76.529999,75.099998,75.849998,71.194572,313200
2016-03-10,76.279999,76.809998,75.129997,75.370003,70.744019,266300
2016-03-11,75.510002,76.199997,75.510002,75.779999,71.128860,239200
2016-03-14,75.779999,76.199997,74.879997,75.239998,70.621986,286000
2016-03-15,74.779999,76.500000,74.040001,76.160004,71.485535,365100
2016-03-16,75.779999,76.830002,75.529999,76.550003,71.851585,188200
2016-03-17,76.839996,77.760002,76.510002,77.260002,72.518028,304300
2016-03-18,76.949997,77.580002,76.169998,76.889999,72.170731,611700
2016-03-21,76.989998,77.989998,76.820000,77.379997,72.630638,212000
2016-03-22,77.000000,78.419998,76.639999,78.070000,73.278305,241500
2016-03-23,77.959999,78.889999,76.989998,78.139999,73.344009,253200
2016-03-24,77.930000,77.989998,76.860001,77.389999,72.640030,207600
2016-03-28,77.680000,78.370003,77.449997,78.309998,73.503571,320300
2016-03-29,77.940002,78.709999,77.379997,78.510002,73.691292,624100
2016-03-30,78.779999,79.040001,78.059998,78.730003,73.897789,294200
2016-03-31,78.830002,79.019997,78.199997,78.410004,73.597443,373200
2016-04-01,78.029999,79.160004,77.820000,79.089996,74.235687,193900
2016-04-04,79.230003,79.669998,78.709999,78.910004,74.066765,177000
2016-04-05,78.320000,78.779999,77.500000,77.739998,72.968552,218700
2016-04-06,77.739998,78.190002,76.660004,77.980003,73.193817,250300
2016-04-07,77.639999,77.639999,76.860001,77.349998,72.602501,219100
2016-04-08,77.849998,77.849998,77.040001,77.360001,72.611885,178600
2016-04-11,77.970001,78.169998,77.160004,77.360001,72.611885,171700
2016-04-12,77.470001,77.699997,76.970001,77.589996,72.827766,201000
2016-04-13,78.029999,78.230003,76.870003,78.190002,73.390930,172400
2016-04-14,78.360001,78.570000,77.980003,78.449997,73.634972,211900
2016-04-15,78.419998,79.300003,78.160004,79.250000,74.385864,246900
2016-04-18,79.000000,79.660004,78.930000,79.629997,74.742546,221100
2016-04-19,79.900002,80.320000,79.260002,79.449997,74.573593,304700
2016-04-20,79.720001,79.930000,79.160004,79.769997,74.873962,188500
2016-04-21,79.610001,80.029999,78.430000,78.580002,73.756996,218600
2016-04-22,78.620003,79.790001,78.620003,79.680000,74.789505,238600
2016-04-25,78.940002,79.419998,78.750000,79.019997,74.450294,266800
2016-04-26,79.320000,80.000000,78.739998,79.930000,75.307678,234400
2016-04-27,79.889999,80.360001,79.540001,79.959999,75.335938,303200
2016-04-28,79.750000,80.320000,79.000000,79.290001,74.704689,575500
2016-04-29,77.220001,77.959999,75.709999,76.000000,71.604950,777800
2016-05-02,75.779999,77.330002,75.650002,76.849998,72.405792,478800
2016-05-03,76.389999,76.500000,75.599998,75.750000,71.369392,836200
2016-05-04,75.250000,75.900002,75.010002,75.559998,71.190399,574200
2016-05-05,75.540001,76.480003,75.120003,76.059998,71.661476,307100
2016-05-06,76.000000,76.550003,75.720001,76.279999,71.868767,222400
2016-05-09,76.169998,76.820000,75.660004,76.550003,72.123131,365700
2016-05-10,76.730003,77.300003,76.309998,77.080002,72.622498,196600
2016-05-11,77.070000,77.669998,76.680000,76.830002,72.386963,251800
2016-05-12,77.320000,77.980003,77.080002,77.629997,73.140678,219900
2016-05-13,77.339996,77.339996,76.510002,76.970001,72.518852,202900
2016-05-16,77.080002,77.790001,76.629997,77.400002,72.923988,169500
2016-05-17,77.260002,77.419998,75.239998,75.400002,71.039658,446800
2016-05-18,75.120003,76.089996,74.830002,75.250000,70.898315,337400
2016-05-19,74.760002,75.480003,74.160004,74.849998,70.521454,253100
2016-05-20,75.309998,75.779999,74.970001,75.330002,70.973701,301700
2016-05-23,75.489998,75.629997,74.730003,74.790001,70.464928,220500
2016-05-24,75.239998,76.559998,75.150002,76.379997,71.962967,257900
2016-05-25,76.349998,76.860001,76.080002,76.349998,71.934692,173400
2016-05-26,76.519997,76.760002,75.959999,76.430000,72.010078,140300
2016-05-27,76.519997,77.190002,76.180000,77.139999,72.679031,246300
2016-05-31,77.220001,77.540001,76.830002,77.260002,72.792091,267700
2016-06-01,76.860001,77.209999,76.070000,77.209999,72.744980,194600
2016-06-02,77.150002,77.349998,76.790001,77.349998,72.876884,222600
2016-06-03,77.570000,77.790001,76.940002,77.199997,72.735542,145100
2016-06-06,77.309998,78.029999,76.790001,77.089996,72.631912,184800
2016-06-07,77.029999,77.910004,77.029999,77.489998,73.008781,170000
2016-06-08,77.589996,78.550003,77.120003,77.720001,73.225479,128100
2016-06-09,77.400002,77.870003,77.180000,77.790001,73.291443,123400
2016-06-10,77.400002,78.199997,77.400002,78.199997,73.677719,274700
2016-06-13,77.750000,78.080002,76.620003,76.779999,72.339851,261800
2016-06-14,76.830002,76.959999,76.099998,76.440002,72.019501,246100
2016-06-15,76.500000,76.959999,76.059998,76.320000,71.906425,213300
2016-06-16,76.059998,76.940002,75.660004,76.500000,72.076042,285400
2016-06-17,76.220001,76.599998,75.790001,76.349998,71.934692,351300
2016-06-20,77.180000,77.980003,77.180000,77.620003,73.131264,140800
2016-06-21,77.620003,78.220001,77.470001,77.680000,73.187798,213400
2016-06-22,77.910004,78.309998,77.620003,78.309998,73.781357,162800
2016-06-23,79.080002,80.139999,79.080002,80.139999,75.505524,368500
2016-06-24,77.199997,78.099998,76.540001,76.750000,72.311577,461600
2016-06-27,75.930000,75.970001,74.269997,74.599998,70.285919,327800
2016-06-28,74.900002,75.690002,74.529999,75.690002,71.312874,216300
2016-06-29,76.550003,76.949997,75.949997,76.720001,72.283310,198000
2016-06-30,76.959999,79.150002,76.760002,79.129997,74.553940,395900
2016-07-01,78.989998,79.730003,78.500000,79.169998,74.591621,169300
2016-07-05,78.849998,79.099998,77.800003,78.720001,74.167664,207000
2016-07-06,78.660004,78.820000,77.970001,78.739998,74.186501,192300
2016-07-07,78.889999,79.330002,78.279999,78.489998,73.950943,155400
2016-07-08,79.269997,79.849998,79.099998,79.790001,75.175766,132300
2016-07-11,80.080002,80.470001,79.879997,80.199997,75.562073,144500
2016-07-12,80.750000,81.169998,80.360001,80.410004,75.759911,143800
2016-07-13,80.769997,80.919998,80.080002,80.230003,75.590332,188000
2016-07-14,80.800003,81.000000,79.860001,80.190002,75.552658,134100
2016-07-15,80.110001,80.629997,79.919998,79.919998,75.298241,164500
2016-07-18,79.919998,80.540001,79.580002,79.910004,75.288841,93400
2016-07-19,79.860001,80.089996,79.220001,79.620003,75.015602,87100
2016-07-20,79.559998,80.720001,79.559998,80.300003,75.656296,191200
2016-07-21,80.059998,80.570000,79.730003,79.940002,75.317101,132500
2016-07-22,79.919998,80.790001,79.910004,80.459999,75.807014,140900
2016-07-25,80.040001,80.400002,79.800003,79.949997,75.608437,235000
2016-07-26,79.879997,80.720001,79.879997,80.300003,75.939438,185200
2016-07-27,80.739998,80.739998,79.279999,79.720001,75.390907,321300
2016-07-28,79.709999,79.989998,78.970001,79.379997,75.069382,239100
2016-07-29,79.919998,81.500000,77.110001,78.180000,73.934547,730500
2016-08-01,78.139999,78.139999,77.000000,77.339996,73.140160,302600
2016-08-02,77.230003,77.230003,75.940002,76.610001,72.449814,406600
2016-08-03,76.709999,76.970001,76.250000,76.620003,72.459259,213500
2016-08-04,76.739998,77.489998,76.540001,76.779999,72.610580,171800
2016-08-05,77.300003,77.320000,76.449997,76.589996,72.430901,217700
2016-08-08,76.709999,77.589996,75.989998,76.169998,72.033699,185000
2016-08-09,76.260002,76.599998,75.720001,75.980003,71.854034,153000
2016-08-10,76.070000,76.330002,75.839996,76.220001,72.080978,133000
2016-08-11,76.580002,76.860001,75.870003,76.099998,71.967491,193300
2016-08-12,75.989998,76.099998,75.349998,75.580002,71.475746,99200
2016-08-15,75.870003,76.080002,75.480003,75.500000,71.400070,103000
2016-08-16,75.589996,75.639999,75.080002,75.160004,71.078537,186000
2016-08-17,75.220001,75.820000,75.010002,75.790001,71.674339,179400
2016-08-18,75.800003,76.830002,75.620003,76.830002,72.657875,220900
2016-08-19,76.459999,76.989998,76.239998,76.779999,72.610580,209400
2016-08-22,76.769997,77.220001,76.400002,77.099998,72.913185,144600
2016-08-23,77.410004,77.930000,77.269997,77.339996,73.140160,312400
2016-08-24,77.220001,77.739998,77.220001,77.580002,73.367134,185900
2016-08-25,77.430000,78.540001,77.430000,78.070000,73.830528,219500
2016-08-26,78.050003,79.070000,78.050003,78.470001,74.208786,376200
2016-08-29,78.500000,79.059998,78.500000,78.779999,74.501968,163400
2016-08-30,78.779999,79.120003,78.589996,78.690002,74.416870,198900
2016-08-31,78.540001,78.790001,77.959999,77.980003,73.745407,279700
2016-09-01,78.120003,78.300003,77.489998,77.970001,73.735947,209800
2016-09-02,78.470001,79.180000,78.099998,79.160004,74.861320,253000
2016-09-06,79.440002,79.809998,78.919998,79.459999,75.145042,237300
2016-09-07,79.180000,80.370003,79.180000,80.290001,75.929962,316100
2016-09-08,80.519997,80.550003,79.169998,79.209999,74.908623,281300
2016-09-09,78.900002,78.900002,77.430000,77.459999,73.253647,327000
2016-09-12,77.000000,78.559998,77.000000,78.510002,74.246620,182000
2016-09-13,78.080002,78.370003,77.139999,77.540001,73.329292,246800
2016-09-14,77.489998,77.760002,77.059998,77.370003,73.168549,150000
2016-09-15,77.300003,77.989998,77.260002,77.900002,73.669754,162600
2016-09-16,77.360001,78.010002,77.360001,77.599998,73.386032,310300
2016-09-19,77.900002,78.800003,77.889999,78.610001,74.341209,233200
2016-09-20,79.099998,79.410004,78.699997,78.720001,74.445236,281000
2016-09-21,78.809998,78.809998,77.839996,78.419998,74.161522,413200
2016-09-22,79.059998,79.510002,78.360001,79.459999,75.145042,281200
2016-09-23,79.169998,79.489998,78.610001,78.790001,74.511406,157100
2016-09-26,78.690002,78.970001,78.029999,78.059998,73.821053,289000
2016-09-27,77.360001,78.139999,77.360001,77.739998,73.518448,631400
2016-09-28,78.360001,78.650002,77.610001,78.610001,74.341209,211900
2016-09-29,78.279999,78.570000,77.080002,77.209999,73.017227,175600
2016-09-30,77.360001,77.919998,76.970001,77.410004,73.206360,407300
2016-10-03,77.070000,77.440002,76.599998,77.360001,73.159081,301500
2016-10-04,77.239998,77.680000,76.000000,76.099998,71.967491,242700
2016-10-05,76.459999,76.589996,75.930000,76.110001,71.976952,189300
2016-10-06,76.099998,76.669998,75.760002,76.639999,72.478165,153500
2016-10-07,76.660004,76.669998,75.190002,75.639999,71.532486,279500
2016-10-10,76.040001,76.519997,75.680000,75.949997,71.825645,116400
2016-10-11,75.620003,75.720001,74.550003,75.070000,70.993431,152700
2016-10-12,75.559998,75.809998,75.110001,75.660004,71.551399,140900
2016-10-13,74.779999,76.199997,74.580002,75.589996,71.485191,211200
2016-10-14,75.620003,76.320000,75.570000,76.029999,71.901306,176800
2016-10-17,76.019997,76.470001,76.010002,76.199997,72.062073,80900
2016-10-18,76.779999,77.000000,75.980003,76.389999,72.241768,112900
2016-10-19,76.279999,76.779999,76.040001,76.480003,72.326866,97900
2016-10-20,76.120003,76.800003,75.389999,75.970001,71.844559,219300
2016-10-21,76.230003,77.410004,75.870003,77.160004,72.969940,184300
2016-10-24,78.099998,78.099998,76.550003,77.000000,72.818619,150800
2016-10-25,77.000000,77.139999,76.190002,77.000000,72.818619,187000
2016-10-26,76.820000,77.190002,76.199997,76.269997,72.128273,179200
2016-10-27,76.389999,76.389999,75.610001,76.279999,72.137741,174600
2016-10-28,75.110001,75.989998,72.580002,73.019997,69.054756,464700
2016-10-31,72.930000,73.889999,70.879997,71.440002,67.857948,644800
2016-11-01,71.809998,71.849998,70.320000,70.620003,67.079048,345000
2016-11-02,70.580002,71.540001,70.430000,70.919998,67.363998,267400
2016-11-03,70.849998,71.459999,70.639999,70.870003,67.316498,218400
2016-11-04,71.110001,71.900002,70.980003,71.410004,67.829437,235500
2016-11-07,72.570000,74.349998,72.290001,74.330002,70.603027,458400
2016-11-08,74.279999,76.070000,74.050003,75.739998,71.942337,506700
2016-11-09,74.910004,76.070000,74.529999,75.110001,71.343910,313100
2016-11-10,75.599998,75.599998,71.269997,71.430000,67.848427,636100
2016-11-11,71.360001,72.129997,70.750000,71.849998,68.247383,316900
2016-11-14,72.290001,73.540001,72.290001,73.510002,69.824127,308000
2016-11-15,73.480003,73.800003,72.989998,73.379997,69.700668,190100
2016-11-16,73.629997,73.720001,72.910004,73.570000,69.881126,205000
2016-11-17,73.580002,74.260002,72.800003,73.580002,69.890625,207500
2016-11-18,73.419998,73.760002,72.870003,73.650002,69.957108,229800
2016-11-21,73.699997,74.260002,73.339996,74.239998,70.517532,182500
2016-11-22,74.599998,75.650002,73.959999,75.489998,71.704849,452400
2016-11-23,75.169998,76.250000,75.169998,76.050003,72.236794,193800
2016-11-25,76.040001,76.660004,75.750000,76.070000,72.255775,123600
2016-11-28,76.099998,77.279999,76.019997,76.470001,72.635719,346700
2016-11-29,76.550003,76.860001,74.800003,75.680000,71.885323,327500
2016-11-30,76.019997,76.050003,73.169998,73.180000,69.510681,322800
2016-12-01,73.199997,74.339996,72.459999,74.080002,70.365562,467500
2016-12-02,74.050003,74.550003,73.599998,74.349998,70.622032,388100
2016-12-05,74.839996,75.129997,73.160004,73.379997,69.700668,351000
2016-12-06,73.309998,73.860001,73.099998,73.800003,70.099609,356700
2016-12-07,71.839996,73.919998,71.839996,73.480003,69.795654,579300
2016-12-08,73.489998,74.589996,73.489998,74.199997,70.479546,408300
2016-12-09,74.610001,75.180000,74.279999,74.750000,71.001968,389200
2016-12-12,74.849998,75.150002,74.150002,74.610001,70.868996,276800
2016-12-13,74.900002,75.599998,74.309998,74.370003,70.641029,270700
2016-12-14,74.570000,74.970001,72.959999,73.050003,69.387207,343900
2016-12-15,73.320000,73.720001,72.830002,72.959999,69.301727,346100
2016-12-16,73.220001,73.400002,72.730003,72.930000,69.273216,665800
2016-12-19,73.190002,74.029999,72.779999,73.800003,70.099609,280500
2016-12-20,73.650002,74.059998,73.400002,73.980003,70.270576,269400
2016-12-21,73.870003,74.160004,73.339996,73.360001,69.681664,280600
2016-12-22,73.500000,73.500000,72.580002,73.019997,69.358711,291800
2016-12-23,72.860001,73.930000,72.860001,73.610001,69.919136,161500
2016-12-27,73.809998,74.570000,73.449997,74.169998,70.451042,201800
2016-12-28,74.050003,74.690002,73.570000,73.720001,70.023636,191000
2016-12-29,73.639999,74.120003,73.320000,73.690002,69.995117,139400
2016-12-30,73.730003,74.019997,73.250000,73.449997,69.767143,240200
2017-01-03,74.260002,74.260002,72.349998,73.019997,69.358711,336300
2017-01-04,72.919998,74.720001,72.919998,74.230003,70.508041,418800
2017-01-05,73.720001,74.410004,73.230003,73.470001,69.786156,356400
2017-01-06,73.529999,73.970001,73.070000,73.500000,69.814644,282800
2017-01-09,73.500000,74.410004,73.080002,73.680000,69.985626,374100
2017-01-10,73.330002,73.589996,72.800003,72.820000,69.168739,161500
2017-01-11,73.029999,73.360001,72.779999,73.040001,69.377701,193100
2017-01-12,73.150002,73.760002,72.360001,73.330002,69.653160,184300
2017-01-13,73.309998,73.820000,73.029999,73.500000,69.814644,188900
2017-01-17,72.879997,73.830002,72.860001,73.339996,69.662682,270200
2017-01-18,73.419998,73.800003,73.019997,73.480003,69.795654,261000
2017-01-19,73.639999,73.690002,72.459999,72.730003,69.083252,374700
2017-01-20,72.370003,72.510002,71.550003,71.639999,68.047897,347300
2017-01-23,71.879997,72.529999,71.440002,72.449997,68.817268,384600
2017-01-24,72.790001,73.849998,72.790001,73.540001,69.852646,266000
2017-01-25,73.360001,73.940002,73.139999,73.430000,69.748169,267000
2017-01-26,73.389999,73.680000,72.459999,73.320000,69.643669,275500
2017-01-27,73.400002,73.489998,72.910004,73.440002,69.757652,320400
2017-01-30,73.070000,73.440002,72.099998,72.739998,69.395134,342000
2017-01-31,72.870003,73.309998,72.290001,72.970001,69.614555,669400
2017-02-01,73.290001,74.050003,73.050003,73.940002,70.539940,446900
2017-02-02,73.800003,73.800003,73.010002,73.330002,69.958000,325700
2017-02-03,73.769997,74.129997,73.500000,73.779999,70.387306,278200
2017-02-06,73.529999,74.019997,73.120003,73.349998,69.977074,254500
2017-02-07,73.339996,73.470001,72.650002,72.730003,69.385582,360800
2017-02-08,72.620003,73.699997,72.440002,73.550003,70.167870,397300
2017-02-09,73.370003,73.940002,73.160004,73.570000,70.186943,438000
2017-02-10,74.209999,76.199997,74.209999,74.790001,71.350868,1160100
2017-02-13,75.220001,75.440002,74.360001,74.430000,71.007408,440000
2017-02-14,74.400002,74.400002,73.720001,73.830002,70.434990,432000
2017-02-15,73.830002,73.919998,72.860001,73.199997,69.833969,522800
2017-02-16,73.400002,74.230003,73.400002,74.199997,70.787987,267000
2017-02-17,74.419998,74.550003,73.470001,73.900002,70.501785,318600
2017-02-21,73.910004,74.660004,73.860001,74.589996,71.160034,188600
2017-02-22,74.339996,74.809998,73.940002,74.260002,70.845245,204500
2017-02-23,74.470001,74.559998,74.040001,74.120003,70.711655,250600
2017-02-24,73.779999,74.489998,73.639999,74.360001,70.940636,232400
2017-02-27,74.099998,75.019997,74.099998,74.480003,71.055115,251800
2017-02-28,74.269997,74.650002,73.949997,74.510002,71.083733,390200
2017-03-01,75.209999,76.169998,74.919998,76.059998,72.562447,371000
2017-03-02,75.690002,76.070000,75.459999,75.809998,72.323944,327700
2017-03-03,75.529999,76.239998,75.529999,76.040001,72.543373,298400
2017-03-06,75.470001,76.089996,75.470001,75.650002,72.171310,302100
2017-03-07,75.540001,75.940002,75.180000,75.470001,71.999573,452700
2017-03-08,75.279999,76.059998,75.279999,75.940002,72.447975,435600
2017-03-09,75.879997,76.480003,75.589996,75.849998,72.362114,341200
2017-03-10,76.120003,77.000000,75.800003,76.790001,73.258896,435400
2017-03-13,76.800003,77.000000,76.160004,76.750000,73.220726,221900
2017-03-14,75.629997,77.019997,75.349998,76.529999,73.010826,265900
2017-03-15,76.919998,77.690002,76.830002,77.239998,73.688194,225600
2017-03-16,77.300003,77.529999,76.690002,76.980003,73.440155,186200
2017-03-17,76.900002,77.239998,76.589996,77.080002,73.535553,405100
2017-03-20,77.169998,77.870003,76.750000,77.839996,74.260597,247300
2017-03-21,77.720001,77.830002,76.629997,76.769997,73.239807,321300
2017-03-22,76.660004,77.080002,76.510002,76.849998,73.316139,130100
2017-03-23,76.830002,77.739998,76.320000,77.160004,73.611877,136400
2017-03-24,77.190002,77.650002,76.330002,76.620003,73.096710,154300
2017-03-27,75.809998,76.760002,75.809998,76.620003,73.096710,256200
2017-03-28,76.410004,77.279999,76.330002,77.070000,73.526016,237700
2017-03-29,77.110001,77.110001,76.489998,77.040001,73.497398,129300
2017-03-30,76.989998,77.379997,76.559998,76.860001,73.325668,141800
2017-03-31,76.900002,77.279999,76.419998,76.989998,73.449699,197200
2017-04-03,76.940002,77.459999,76.209999,76.449997,72.934525,424900
2017-04-04,76.500000,76.900002,75.949997,76.739998,73.211182,318700
2017-04-05,77.040001,77.040001,76.019997,76.080002,72.581535,372800
2017-04-06,75.940002,76.540001,75.489998,76.529999,73.010826,293700
2017-04-07,76.489998,76.790001,76.019997,76.160004,72.657875,214800
2017-04-10,75.940002,76.949997,75.919998,76.889999,73.354286,242100
2017-04-11,76.599998,76.970001,76.419998,76.919998,73.382912,263700
2017-04-12,76.889999,76.919998,76.040001,76.230003,72.724640,236800
2017-04-13,76.050003,76.589996,75.760002,75.800003,72.314415,164800
2017-04-17,76.029999,77.300003,75.879997,77.269997,73.716805,220500
2017-04-18,77.040001,77.680000,76.940002,77.570000,74.003029,196800
2017-04-19,77.870003,77.930000,77.510002,77.550003,73.983932,264800
2017-04-20,76.949997,78.320000,76.949997,77.820000,74.241539,354300
2017-04-21,78.180000,78.639999,77.099998,77.989998,74.403687,185200
2017-04-24,78.970001,78.970001,77.720001,78.300003,74.699455,250700
2017-04-25,78.349998,79.169998,77.620003,78.730003,75.109680,290500
2017-04-26,78.919998,79.500000,78.690002,79.339996,75.691620,343000
2017-04-27,79.199997,79.599998,78.430000,78.790001,75.166924,237600
2017-04-28,80.000000,80.529999,78.760002,80.300003,76.607483,637700
2017-05-01,80.080002,80.599998,79.209999,79.730003,76.368027,974600
2017-05-02,79.349998,80.680000,78.889999,80.199997,76.818199,450100
2017-05-03,79.889999,80.660004,79.500000,80.449997,77.057655,384500
2017-05-04,80.500000,81.720001,80.500000,81.389999,77.958023,488800
2017-05-05,81.400002,82.169998,81.320000,81.910004,78.456116,413400
2017-05-08,82.080002,82.610001,81.720001,82.510002,79.030815,374100
2017-05-09,82.610001,82.940002,82.110001,82.480003,79.002075,302600
2017-05-10,82.250000,83.040001,82.250000,82.870003,79.375618,308100
2017-05-11,82.489998,82.919998,81.820000,82.529999,79.049957,311500
2017-05-12,82.449997,82.820000,82.239998,82.430000,78.954178,227600
2017-05-15,82.430000,82.980003,82.190002,82.629997,79.145744,211900
2017-05-16,82.580002,82.800003,82.230003,82.790001,79.298988,210700
2017-05-17,82.790001,82.790001,81.849998,82.279999,78.810493,266100
2017-05-18,82.250000,82.400002,81.120003,82.139999,78.676407,325700
2017-05-19,82.190002,82.510002,81.820000,82.360001,78.887123,331900
2017-05-22,82.250000,82.980003,82.050003,82.839996,79.346886,238500
2017-05-23,83.000000,83.660004,82.970001,83.190002,79.682137,204100
2017-05-24,83.190002,83.519997,82.800003,83.389999,79.873703,187400
2017-05-25,83.620003,84.279999,83.260002,84.150002,80.601654,203200
2017-05-26,84.150002,84.629997,84.059998,84.370003,80.812370,158300
2017-05-30,84.129997,84.639999,83.800003,84.540001,80.975189,224400
2017-05-31,85.180000,85.180000,84.419998,85.010002,81.425377,285400
2017-06-01,85.250000,86.309998,85.010002,86.260002,82.622681,272600
2017-06-02,86.400002,86.730003,85.730003,86.330002,82.689705,170700
2017-06-05,86.099998,87.089996,85.779999,85.849998,82.229950,237600
2017-06-06,85.830002,85.830002,85.059998,85.480003,81.875565,342600
2017-06-07,85.110001,85.919998,85.059998,85.690002,82.076714,366600
2017-06-08,85.779999,85.989998,84.860001,85.250000,81.655273,185000
2017-06-09,85.300003,85.800003,85.180000,85.650002,82.038406,189800
2017-06-12,85.239998,85.980003,84.870003,85.440002,81.837257,239000
2017-06-13,85.860001,86.180000,85.480003,86.180000,82.546059,178500
2017-06-14,86.040001,86.769997,86.040001,86.250000,82.613106,212300
2017-06-15,85.519997,86.290001,84.900002,86.230003,82.593948,200000
2017-06-16,86.000000,86.360001,85.449997,85.949997,82.325745,450200
2017-06-19,86.320000,86.870003,85.930000,86.750000,83.092018,166600
2017-06-20,86.949997,87.180000,86.650002,86.889999,83.226120,240200
2017-06-21,86.919998,87.940002,86.550003,87.000000,83.331467,185800
2017-06-22,86.959999,87.360001,86.410004,86.820000,83.159050,166200
2017-06-23,86.830002,87.680000,86.330002,86.800003,83.139893,474300
2017-06-26,86.970001,87.589996,86.610001,87.139999,83.465576,307000
2017-06-27,87.000000,87.510002,86.339996,86.370003,82.728027,187900
2017-06-28,86.959999,87.370003,86.269997,86.930000,83.264420,169600
2017-06-29,86.870003,87.129997,85.779999,86.489998,82.842964,196100
2017-06-30,86.930000,87.330002,86.769997,86.860001,83.197372,238500
2017-07-03,87.209999,87.669998,86.889999,87.080002,83.408104,118800
2017-07-05,86.949997,87.500000,86.440002,87.290001,83.609238,243900
2017-07-06,86.830002,87.739998,86.690002,87.309998,83.628395,393900
2017-07-07,87.690002,88.550003,87.139999,88.089996,84.375519,245200
2017-07-10,87.949997,89.070000,87.480003,88.300003,84.576653,246000
2017-07-11,88.190002,88.580002,87.750000,88.169998,84.452133,180700
2017-07-12,88.860001,89.320000,88.430000,88.980003,85.227974,142400
2017-07-13,89.070000,89.269997,87.790001,88.629997,84.892738,278600
2017-07-14,89.120003,89.970001,88.919998,89.430000,85.659012,305900
2017-07-17,89.500000,89.970001,89.230003,89.790001,86.003830,299300
2017-07-18,89.400002,90.410004,89.080002,89.739998,85.955933,278500
2017-07-19,90.320000,90.790001,89.680000,90.089996,86.291183,395300
2017-07-20,90.269997,90.480003,89.529999,89.699997,85.917610,323100
2017-07-21,89.989998,89.989998,89.000000,89.510002,85.735641,271500
2017-07-24,88.940002,89.589996,88.589996,89.459999,85.995178,390200
2017-07-25,89.959999,89.959999,88.519997,88.690002,85.255005,596900
2017-07-26,88.779999,88.970001,87.989998,88.059998,84.649391,317800
2017-07-27,88.500000,88.500000,87.260002,88.000000,84.591721,328900
2017-07-28,83.400002,83.699997,80.830002,82.309998,79.122108,915000
2017-07-31,82.239998,83.500000,80.690002,80.930000,77.795547,962700
2017-08-01,81.000000,82.790001,80.980003,82.510002,79.314362,463400
2017-08-02,82.540001,82.750000,81.230003,82.250000,79.064430,348600
2017-08-03,82.300003,82.419998,81.820000,82.250000,79.064430,322100
2017-08-04,82.500000,82.779999,82.169998,82.360001,79.170166,168100
2017-08-07,82.550003,82.949997,82.389999,82.739998,79.535454,171600
2017-08-08,82.629997,82.930000,82.400002,82.739998,79.535454,163300
2017-08-09,82.500000,82.800003,82.239998,82.480003,79.285522,188900
2017-08-10,82.230003,82.739998,81.480003,81.510002,78.353088,265100
2017-08-11,82.349998,82.349998,81.410004,82.139999,78.958679,214100
2017-08-14,82.629997,83.000000,82.510002,82.910004,79.698860,147300
2017-08-15,82.739998,83.000000,82.550003,82.750000,79.545059,190900
2017-08-16,82.860001,83.830002,82.699997,83.550003,80.314079,248800
2017-08-17,83.269997,83.519997,82.120003,82.129997,78.949066,221700
2017-08-18,82.010002,82.300003,81.639999,82.150002,78.968292,191000
2017-08-21,82.059998,82.480003,81.339996,81.489998,78.333862,126300
2017-08-22,81.980003,82.290001,81.730003,82.120003,78.939453,190100
2017-08-23,81.750000,82.529999,81.489998,81.610001,78.449219,180500
2017-08-24,81.730003,82.059998,80.949997,81.080002,77.939743,180000
2017-08-25,81.500000,82.730003,81.500000,82.389999,79.198997,330100
2017-08-28,82.650002,82.779999,81.489998,81.860001,78.689507,241600
2017-08-29,81.900002,82.099998,81.570000,82.000000,78.824120,226300
2017-08-30,82.139999,83.180000,81.900002,82.970001,79.756538,207600
2017-08-31,83.180000,83.660004,82.720001,83.610001,80.371742,266700
2017-09-01,83.800003,84.000000,83.419998,83.879997,80.631294,183000
2017-09-05,83.720001,84.169998,83.180000,83.250000,80.025696,191900
2017-09-06,83.330002,83.330002,82.489998,82.849998,79.641197,240900
2017-09-07,82.959999,83.739998,82.320000,83.610001,80.371742,241000
2017-09-08,83.500000,84.180000,82.769997,83.820000,80.573624,207600
2017-09-11,84.320000,85.169998,84.000000,85.120003,81.823273,209800
2017-09-12,84.930000,85.440002,84.709999,85.199997,81.900169,214500
2017-09-13,84.610001,85.040001,84.370003,84.500000,81.227287,229000
2017-09-14,84.510002,85.099998,84.160004,84.870003,81.582954,166300
2017-09-15,84.739998,84.949997,84.480003,84.709999,81.429146,399800
2017-09-18,84.970001,85.669998,84.739998,85.440002,82.130875,198600
2017-09-19,85.430000,85.760002,84.949997,85.559998,82.246223,260300
2017-09-20,85.660004,86.239998,85.639999,86.120003,82.784538,167200
2017-09-21,86.080002,86.760002,85.870003,86.150002,82.813370,199600
2017-09-22,86.199997,86.269997,85.449997,85.720001,82.400024,189400
2017-09-25,85.750000,86.889999,85.349998,86.760002,83.399742,222800
2017-09-26,87.099998,87.320000,86.449997,86.750000,83.390137,199700
2017-09-27,86.800003,86.930000,86.209999,86.540001,83.188286,272900
2017-09-28,86.360001,87.510002,86.089996,87.080002,83.707367,228200
2017-09-29,87.019997,87.129997,86.300003,86.309998,82.967171,220700
2017-10-02,86.809998,87.970001,86.540001,87.879997,84.476379,264000
2017-10-03,87.900002,88.440002,87.900002,88.430000,85.005074,202100
2017-10-04,88.260002,88.849998,87.919998,88.139999,84.726303,231600
2017-10-05,88.510002,88.730003,87.620003,88.139999,84.726303,178900
2017-10-06,88.040001,88.629997,87.900002,88.580002,85.149246,162800
2017-10-09,88.680000,88.790001,88.330002,88.459999,85.033897,139400
2017-10-10,88.599998,88.870003,88.220001,88.470001,85.043510,186700
2017-10-11,88.480003,88.800003,88.190002,88.360001,84.937782,162500
2017-10-12,88.500000,88.709999,88.220001,88.489998,85.062752,168000
2017-10-13,88.690002,89.370003,88.690002,88.839996,85.399193,187100
2017-10-16,88.919998,88.940002,87.970001,88.940002,85.495316,236000
2017-10-17,89.300003,89.300003,88.709999,88.980003,85.533760,175200
2017-10-18,88.730003,89.370003,88.320000,88.599998,85.168480,207400
2017-10-19,88.510002,88.830002,88.349998,88.639999,85.206932,151600
2017-10-20,89.230003,89.309998,88.699997,89.199997,85.745239,134800
2017-10-23,89.160004,89.680000,88.919998,89.029999,85.581833,418900
2017-10-24,89.059998,89.629997,88.830002,89.120003,85.668358,189100
2017-10-25,89.070000,89.470001,87.690002,88.489998,85.062752,201800
2017-10-26,88.809998,89.239998,88.599998,88.940002,85.495316,234700
2017-10-27,89.400002,89.400002,85.889999,87.930000,84.524437,531500
2017-10-30,87.459999,87.589996,86.250000,86.459999,83.111366,260400
2017-10-31,86.250000,87.300003,86.120003,87.070000,84.008675,474700
2017-11-01,87.830002,88.120003,87.209999,87.410004,84.336731,279300
2017-11-02,87.089996,87.370003,86.320000,86.599998,83.555199,259200
2017-11-03,86.599998,87.180000,86.599998,86.940002,83.883240,216000
2017-11-06,87.019997,87.080002,85.680000,85.849998,82.831558,271600
2017-11-07,85.849998,86.110001,85.389999,85.720001,82.706131,326900
2017-11-08,85.680000,86.599998,85.639999,85.730003,82.715775,271400
2017-11-09,85.199997,85.419998,84.320000,84.760002,81.779892,146600
2017-11-10,84.349998,85.110001,84.220001,84.910004,81.924622,195800
2017-11-13,84.620003,85.760002,84.620003,85.589996,82.580704,156100
2017-11-14,85.379997,85.889999,85.160004,85.610001,82.599991,157400
2017-11-15,85.540001,85.980003,85.080002,85.480003,82.474564,182500
2017-11-16,85.739998,86.500000,85.599998,86.110001,83.082413,264400
2017-11-17,86.029999,86.239998,85.480003,85.650002,82.638603,171000
2017-11-20,85.610001,86.430000,85.320000,85.470001,82.464943,220200
2017-11-21,85.919998,86.820000,85.320000,86.540001,83.497314,506700
2017-11-22,86.610001,86.620003,85.790001,85.849998,82.831558,140300
2017-11-24,85.489998,86.339996,85.099998,86.250000,83.217506,108200
2017-11-27,86.370003,87.000000,86.370003,86.739998,83.690277,330900
2017-11-28,87.279999,87.470001,86.430000,86.910004,83.854301,194600
2017-11-29,87.110001,87.739998,87.080002,87.559998,84.481422,193900
2017-11-30,87.610001,88.900002,87.080002,88.410004,85.301552,232000
2017-12-01,88.330002,88.989998,86.440002,87.599998,84.520035,244300
2017-12-04,87.790001,88.699997,87.320000,88.059998,84.963860,290400
2017-12-05,88.330002,89.160004,87.889999,89.000000,85.870819,255800
2017-12-06,88.940002,88.940002,88.120003,88.169998,85.069992,251700
2017-12-07,88.449997,88.720001,87.790001,88.379997,85.272614,258900
2017-12-08,88.269997,88.500000,87.559998,87.900002,84.809486,251000
2017-12-11,87.870003,87.870003,86.860001,87.279999,84.211281,241200
2017-12-12,87.300003,87.540001,85.699997,86.430000,83.391174,424400
2017-12-13,86.050003,87.190002,85.760002,86.690002,83.642029,420900
2017-12-14,87.080002,87.209999,86.320000,86.370003,83.333275,302000
2017-12-15,86.589996,87.510002,86.589996,86.980003,83.921837,474900
2017-12-18,87.250000,87.889999,86.480003,86.570000,83.526245,251800
2017-12-19,86.300003,87.650002,86.300003,86.580002,83.535889,367200
2017-12-20,86.839996,87.129997,86.290001,86.330002,83.294678,189500
2017-12-21,86.400002,86.790001,85.720001,85.760002,82.744736,265400
2017-12-22,85.680000,86.360001,85.430000,85.900002,82.879822,162500
2017-12-26,85.790001,86.449997,85.220001,85.389999,82.387718,130500
2017-12-27,85.419998,85.820000,85.059998,85.620003,82.609642,114500
2017-12-28,85.849998,86.870003,85.660004,86.750000,83.699921,207000
2017-12-29,86.879997,87.000000,86.239998,86.279999,83.246452,148900
2018-01-02,86.440002,87.320000,86.080002,87.010002,83.950798,233300
2018-01-03,87.260002,87.610001,86.820000,87.190002,84.124458,177700
2018-01-04,87.209999,87.930000,85.800003,86.010002,82.985947,362900
2018-01-05,86.290001,87.449997,86.190002,86.910004,83.854301,209200
2018-01-08,86.860001,87.510002,86.570000,87.199997,84.134094,341200
2018-01-09,87.279999,87.760002,86.360001,86.389999,83.352585,282000
2018-01-10,86.099998,86.099998,85.160004,85.669998,82.657890,161400
2018-01-11,85.440002,86.489998,85.440002,86.250000,83.217506,311600
2018-01-12,86.370003,86.940002,85.879997,86.559998,83.516594,179400
2018-01-16,86.360001,87.209999,86.010002,86.239998,83.207855,254000
2018-01-17,86.769997,87.279999,86.510002,86.839996,83.786751,250400
2018-01-18,86.849998,87.320000,86.349998,87.239998,84.172691,220800
2018-01-19,87.300003,88.699997,87.300003,88.610001,85.494522,177500
2018-01-22,88.610001,88.610001,86.599998,87.459999,84.384956,369900
2018-01-23,87.440002,87.750000,86.910004,87.599998,84.520035,158800
2018-01-24,87.809998,88.599998,86.349998,88.199997,85.098953,255000
2018-01-25,88.400002,89.430000,88.129997,89.430000,86.285698,339100
2018-01-26,89.480003,89.500000,88.459999,89.139999,86.005898,206300
2018-01-29,88.730003,89.230003,87.540001,87.730003,84.645477,254300
2018-01-30,87.449997,87.959999,87.050003,87.690002,84.916618,345000
2018-01-31,88.089996,88.099998,86.760002,87.419998,84.655151,519100
2018-02-01,87.239998,87.629997,85.809998,86.839996,84.093491,220800
2018-02-02,86.529999,86.910004,85.540001,85.800003,83.086395,217000
2018-02-05,85.099998,86.000000,83.379997,83.379997,80.742920,434200
2018-02-06,82.379997,83.889999,81.410004,83.790001,81.139961,352300
2018-02-07,83.809998,84.910004,83.730003,83.849998,81.198051,304100
2018-02-08,83.860001,84.820000,81.360001,81.379997,78.806190,349100
2018-02-09,82.089996,82.589996,79.970001,82.160004,79.561501,367200
2018-02-12,82.559998,83.449997,81.589996,82.599998,79.987587,303000
2018-02-13,86.750000,92.320000,86.300003,89.720001,86.882401,1102000
2018-02-14,89.580002,90.870003,88.739998,90.660004,87.792679,512100
2018-02-15,90.180000,91.970001,90.180000,91.169998,88.286560,333300
2018-02-16,91.040001,92.139999,90.489998,91.830002,88.925674,335500
2018-02-20,91.239998,92.190002,90.720001,91.059998,88.180031,372000
2018-02-21,91.339996,92.279999,90.110001,90.160004,87.308495,283200
2018-02-22,90.440002,91.459999,90.309998,90.610001,87.744255,255300
2018-02-23,90.739998,91.070000,89.930000,90.989998,88.112236,249400
2018-02-26,91.279999,91.480003,90.389999,90.779999,87.908875,250300
2018-02-27,90.730003,90.730003,89.440002,89.500000,86.669373,286500
2018-02-28,89.730003,90.410004,89.209999,89.419998,86.591881,306900
2018-03-01,89.239998,90.489998,88.309998,89.000000,86.185188,241900
2018-03-02,88.739998,89.889999,88.300003,89.680000,86.843674,270600
2018-03-05,89.309998,90.699997,89.309998,90.400002,87.540909,231200
2018-03-06,90.370003,91.050003,89.279999,90.769997,87.899193,295800
2018-03-07,89.980003,91.139999,89.709999,90.139999,87.289124,317500
2018-03-08,90.400002,90.830002,89.449997,89.949997,87.105125,368000
2018-03-09,89.940002,90.949997,89.559998,90.870003,87.996040,283100
2018-03-12,90.699997,90.989998,90.400002,90.779999,87.908875,181100
2018-03-13,91.269997,92.099998,90.269997,90.500000,87.637741,257500
2018-03-14,90.959999,91.269997,89.430000,90.070000,87.221344,266900
2018-03-15,90.139999,90.570000,89.800003,90.279999,87.424698,239600
2018-03-16,90.349998,91.129997,89.760002,90.150002,87.298813,424800
2018-03-19,90.059998,90.360001,89.449997,89.959999,87.114822,155000
2018-03-20,90.019997,90.489998,89.669998,89.779999,86.940498,247700
2018-03-21,89.709999,90.339996,89.389999,89.589996,86.756523,266300
2018-03-22,89.220001,89.910004,87.930000,87.959999,85.178070,260900
2018-03-23,87.940002,87.940002,86.690002,86.769997,84.025703,215900
2018-03-26,87.660004,88.550003,87.070000,88.209999,85.420158,278900
2018-03-27,88.519997,89.129997,87.620003,88.080002,85.294281,253200
2018-03-28,88.080002,88.900002,87.820000,88.360001,85.565422,194000
2018-03-29,88.879997,90.339996,88.360001,89.830002,86.988937,287300
2018-04-02,89.370003,89.739998,87.169998,87.930000,85.149025,184400
2018-04-03,88.430000,90.169998,87.690002,89.559998,86.727470,336600
2018-04-04,88.919998,89.949997,86.849998,89.709999,86.872719,276500
2018-04-05,90.300003,90.849998,89.279999,90.400002,87.540909,276400
2018-04-06,89.690002,90.360001,88.230003,88.500000,85.700996,362200
2018-04-09,89.150002,90.339996,88.599998,89.900002,87.056717,471500
2018-04-10,90.750000,93.099998,90.099998,92.720001,89.787521,455600
2018-04-11,91.970001,92.639999,91.750000,92.250000,89.332390,250800
2018-04-12,92.760002,93.250000,92.480003,92.699997,89.768158,221500
2018-04-13,93.199997,93.330002,92.459999,92.750000,89.816582,262600
2018-04-16,93.029999,94.660004,92.959999,94.309998,91.327240,196900
2018-04-17,94.279999,96.389999,93.790001,96.129997,93.089661,507200
2018-04-18,96.150002,96.199997,95.180000,95.610001,92.586121,346800
2018-04-19,95.050003,95.879997,94.540001,94.800003,91.801743,165000
2018-04-20,95.110001,95.139999,94.120003,94.440002,91.453125,217800
2018-04-23,94.709999,95.430000,94.099998,94.349998,91.365974,189500
2018-04-24,94.599998,94.699997,92.769997,93.180000,90.232979,401900
2018-04-25,93.019997,93.949997,92.370003,93.150002,90.203934,298700
2018-04-26,93.180000,93.699997,92.599998,93.279999,90.329811,417000
2018-04-27,93.750000,94.739998,91.879997,93.459999,90.504120,407500
2018-04-30,93.730003,93.989998,93.050003,93.500000,90.542870,907800
2018-05-01,93.449997,93.870003,92.730003,93.540001,90.581604,427800
2018-05-02,94.000000,94.000000,92.470001,92.559998,89.632584,631100
2018-05-03,92.250000,92.830002,90.980003,91.120003,88.238129,560200
2018-05-04,90.839996,92.769997,90.839996,92.260002,89.342072,339900
2018-05-07,92.370003,93.290001,92.300003,92.800003,89.864998,215100
2018-05-08,92.769997,92.790001,91.550003,91.760002,89.165359,284600
2018-05-09,92.000000,93.059998,91.370003,92.959999,90.331421,255500
2018-05-10,93.099998,93.940002,93.050003,93.790001,91.137955,377900
2018-05-11,93.750000,94.320000,93.150002,94.290001,91.623817,492900
2018-05-14,94.190002,94.709999,92.290001,93.370003,90.729836,477500
2018-05-15,93.169998,93.169998,91.589996,92.099998,89.495735,406400
2018-05-16,92.320000,93.769997,91.919998,93.540001,90.895035,257600
2018-05-17,93.669998,93.919998,93.050003,93.290001,90.652084,242600
2018-05-18,92.559998,94.279999,92.379997,93.559998,90.914452,272300
2018-05-21,94.019997,94.410004,93.839996,94.010002,91.351738,162300
2018-05-22,94.279999,94.949997,93.669998,93.959999,91.303146,165300
2018-05-23,93.629997,94.269997,93.360001,94.089996,91.429459,165800
2018-05-24,94.120003,94.480003,93.580002,94.029999,91.371162,116200
2018-05-25,93.879997,94.419998,93.849998,94.080002,91.419762,154900
2018-05-29,93.459999,94.010002,93.059998,93.309998,90.671516,212700
2018-05-30,92.699997,94.410004,92.699997,93.959999,91.303146,258600
2018-05-31,94.250000,94.389999,92.190002,92.320000,89.709526,151900
2018-06-01,92.879997,93.290001,92.470001,92.769997,90.146790,174800
2018-06-04,93.110001,93.900002,92.440002,93.860001,91.205971,172100
2018-06-05,94.059998,94.500000,93.559998,93.919998,91.264275,114800
2018-06-06,93.669998,94.099998,92.040001,93.910004,91.254562,437300
2018-06-07,93.830002,94.430000,92.440002,93.239998,90.603500,534000
2018-06-08,93.050003,93.900002,92.980003,93.660004,91.011635,290600
2018-06-11,93.790001,94.860001,93.430000,93.820000,91.167099,389400
2018-06-12,94.089996,94.889999,93.599998,94.150002,91.487785,455100
2018-06-13,94.550003,95.000000,94.050003,94.320000,91.652969,321400
2018-06-14,94.809998,95.260002,94.260002,94.860001,92.177704,320400
2018-06-15,95.000000,95.370003,94.389999,94.919998,92.235992,505200
2018-06-18,94.570000,95.080002,94.019997,94.839996,92.158257,347300
2018-06-19,93.949997,94.620003,93.610001,94.250000,91.584953,333700
2018-06-20,94.169998,94.870003,93.940002,94.639999,91.963928,285600
2018-06-21,94.510002,94.610001,92.949997,93.099998,90.467461,296900
2018-06-22,93.279999,93.489998,92.339996,92.629997,90.010742,681100
2018-06-25,92.769997,93.199997,91.419998,92.180000,89.573486,348700
2018-06-26,92.349998,93.449997,92.019997,92.709999,90.088486,266700
2018-06-27,92.779999,93.910004,92.070000,92.099998,89.495735,295800
2018-06-28,92.000000,92.760002,91.660004,92.709999,90.088486,251300
2018-06-29,93.199997,94.120003,92.930000,93.379997,90.739540,335800
2018-07-02,92.910004,93.769997,92.459999,93.589996,90.943611,237500
2018-07-03,93.959999,95.029999,93.610001,93.989998,91.332298,178000
2018-07-05,94.489998,94.540001,93.449997,94.540001,91.866737,249900
2018-07-06,94.220001,94.379997,93.720001,94.080002,91.419762,238000
2018-07-09,94.449997,95.629997,94.449997,95.099998,92.410904,188700
2018-07-10,95.169998,96.160004,95.169998,96.110001,93.392357,216100
2018-07-11,95.610001,96.370003,95.110001,95.680000,92.974510,220800
2018-07-12,96.000000,96.830002,95.589996,95.739998,93.032806,196700
2018-07-13,95.360001,96.190002,94.660004,94.870003,92.187401,205300
2018-07-16,94.769997,94.879997,93.169998,93.290001,90.652084,132000
2018-07-17,93.220001,94.739998,93.160004,94.639999,91.963928,155400
2018-07-18,94.639999,95.180000,94.180000,94.620003,91.944489,150000
2018-07-19,94.699997,96.540001,94.699997,96.330002,93.606125,213300
2018-07-20,95.940002,96.160004,95.330002,95.779999,93.071686,192600
2018-07-23,95.940002,96.330002,94.790001,95.139999,92.449768,195800
2018-07-24,95.339996,95.860001,94.529999,94.750000,92.070816,225300
2018-07-25,94.570000,95.000000,94.050003,94.730003,92.051376,182300
2018-07-26,94.879997,96.379997,94.559998,96.070000,93.353477,170300
2018-07-27,98.000000,103.029999,97.150002,102.900002,99.990349,626000
2018-07-30,103.519997,104.099998,99.940002,102.500000,99.601677,531800
2018-07-31,102.480003,103.480003,100.779999,102.430000,99.864906,588100
2018-08-01,102.400002,102.680000,101.410004,102.430000,99.864906,301400
2018-08-02,101.639999,103.580002,101.309998,102.980003,100.401131,327400
2018-08-03,102.989998,104.500000,102.849998,104.099998,101.493095,300200
2018-08-06,104.010002,104.949997,103.980003,104.209999,101.600327,279500
2018-08-07,104.160004,104.680000,103.389999,103.550003,100.956856,296500
2018-08-08,103.339996,103.980003,102.870003,102.959999,100.381638,277900
2018-08-09,103.110001,104.070000,103.000000,103.900002,101.298088,265500
2018-08-10,103.370003,104.040001,102.160004,102.379997,99.816147,325600
2018-08-13,102.239998,103.470001,100.940002,101.400002,98.860695,227800
2018-08-14,101.889999,102.500000,101.330002,101.980003,99.426178,176500
2018-08-15,101.559998,101.660004,100.059998,101.339996,98.802185,300500
2018-08-16,101.620003,102.160004,101.349998,101.669998,99.123917,276300
2018-08-17,101.680000,102.989998,101.400002,102.760002,100.186646,131800
2018-08-20,102.919998,103.519997,102.599998,102.860001,100.284142,198600
2018-08-21,102.830002,103.849998,102.830002,103.290001,100.703369,209600
2018-08-22,103.320000,103.400002,102.739998,103.180000,100.596123,103300
2018-08-23,103.320000,103.550003,102.760002,102.910004,100.332878,124400
2018-08-24,102.980003,104.139999,102.980003,103.800003,101.200600,127300
2018-08-27,103.790001,104.839996,103.790001,104.540001,101.922058,175400
2018-08-28,104.559998,105.190002,103.809998,103.889999,101.288338,214900
2018-08-29,104.199997,105.169998,103.769997,104.699997,102.078049,199700
2018-08-30,104.860001,105.769997,103.820000,104.699997,102.078049,231900
2018-08-31,104.620003,105.440002,104.379997,104.709999,102.087799,153000
2018-09-04,105.320000,106.500000,104.580002,106.379997,103.715988,323600
2018-09-05,106.279999,108.779999,106.279999,108.180000,105.470901,334100
2018-09-06,108.400002,109.690002,108.129997,108.949997,106.221611,228400
2018-09-07,108.940002,108.940002,107.790001,107.900002,105.197914,258500
2018-09-10,108.389999,109.080002,107.889999,108.559998,105.841393,212400
2018-09-11,108.260002,108.730003,107.540001,108.519997,105.802391,101600
2018-09-12,108.360001,109.629997,108.120003,109.389999,106.650604,154700
2018-09-13,108.750000,110.900002,108.669998,110.820000,108.044792,273900
2018-09-14,110.769997,112.160004,109.790001,111.970001,109.166000,424200
2018-09-17,112.300003,112.309998,110.910004,111.300003,108.512772,564500
2018-09-18,111.199997,111.790001,109.970001,111.589996,108.795502,202600
2018-09-19,111.669998,111.900002,110.529999,111.129997,108.347023,204300
2018-09-20,111.279999,111.510002,110.190002,110.489998,107.723038,204500
2018-09-21,110.169998,110.849998,109.669998,110.320000,107.557312,473200
2018-09-24,110.199997,111.470001,109.989998,110.379997,107.615807,352400
2018-09-25,110.750000,110.959999,108.620003,108.760002,106.036392,279000
2018-09-26,108.660004,109.489998,108.370003,108.599998,105.880386,629100
2018-09-27,108.599998,109.190002,108.160004,108.339996,105.626884,255600
2018-09-28,108.209999,108.889999,107.550003,107.739998,105.041924,416900
2018-10-01,108.050003,109.199997,107.370003,107.769997,105.071175,208600
2018-10-02,107.930000,108.610001,107.599998,108.150002,105.441658,210300
2018-10-03,108.510002,108.629997,107.529999,108.000000,105.295418,361200
2018-10-04,107.790001,107.790001,106.300003,107.089996,104.408195,273300
2018-10-05,107.169998,107.639999,106.959999,107.169998,104.486206,220800
2018-10-08,107.120003,107.849998,106.839996,107.669998,104.973679,164700
2018-10-09,107.389999,107.389999,105.680000,105.720001,103.072517,277500
2018-10-10,105.300003,105.769997,102.120003,102.419998,99.855148,456000
2018-10-11,102.370003,103.459999,101.459999,101.570000,99.026428,312700
2018-10-12,102.680000,103.360001,100.339996,101.650002,99.104431,399100
2018-10-15,101.669998,102.959999,101.050003,102.150002,99.591911,239600
2018-10-16,102.660004,105.769997,102.660004,105.599998,102.955521,231300
2018-10-17,106.089996,106.089996,104.419998,105.019997,102.390045,180900
2018-10-18,104.730003,105.239998,103.830002,104.269997,101.658806,439900
2018-10-19,104.589996,105.209999,104.279999,104.320000,101.707565,271800
2018-10-22,104.610001,104.739998,103.050003,103.970001,101.366325,199300
2018-10-23,102.730003,104.570000,101.720001,103.680000,101.083595,479500
2018-10-24,103.629997,103.820000,99.879997,100.080002,97.573753,498300
2018-10-25,100.879997,101.970001,100.510002,101.290001,98.753456,299800
2018-10-26,100.449997,101.050003,99.309998,100.360001,97.846741,423800
2018-10-29,101.320000,102.070000,99.139999,100.160004,97.651749,271300
2018-10-30,100.040001,101.410004,99.339996,101.370003,99.168076,318600
2018-10-31,102.430000,103.070000,101.849998,101.959999,99.745262,417100
2018-11-01,102.690002,103.470001,102.389999,103.180000,100.938759,392600
2018-11-02,97.050003,105.330002,95.059998,103.800003,101.545296,959300
2018-11-05,103.989998,104.480003,101.250000,101.879997,99.666992,481500
2018-11-06,101.639999,104.769997,101.489998,104.099998,101.838776,381300
2018-11-07,104.879997,105.260002,103.339996,105.110001,102.826836,340200
2018-11-08,104.949997,105.769997,104.599998,105.129997,102.846397,368400
2018-11-09,104.959999,105.800003,103.129997,104.290001,102.024658,227100
2018-11-12,104.160004,104.349998,101.580002,101.769997,99.559372,343100
2018-11-13,102.330002,103.459999,101.540001,102.379997,100.156143,225200
2018-11-14,103.040001,103.910004,101.709999,102.080002,99.862656,163200
2018-11-15,101.550003,104.830002,101.209999,104.790001,102.513786,261000
2018-11-16,104.190002,107.150002,104.190002,106.279999,103.971420,235400
2018-11-19,106.199997,106.650002,104.709999,105.180000,102.895317,192700
2018-11-20,104.620003,105.430000,103.370003,104.309998,102.044205,246800
2018-11-21,104.680000,105.190002,103.150002,103.500000,101.251808,221600
2018-11-23,103.000000,104.419998,102.980003,103.900002,101.643120,75400
2018-11-26,104.720001,104.989998,102.949997,103.690002,101.437675,231700
2018-11-27,103.300003,103.320000,102.089996,102.300003,100.077881,213400
2018-11-28,102.800003,104.070000,101.680000,104.029999,101.770287,327800
2018-11-29,103.720001,104.930000,103.690002,103.849998,101.594200,238400
2018-11-30,103.660004,104.550003,103.250000,104.050003,101.789856,330400
2018-12-03,105.230003,105.510002,102.449997,104.459999,102.190956,292000
2018-12-04,104.860001,104.860001,102.830002,102.940002,100.703972,273100
2018-12-06,102.000000,102.000000,98.349998,101.629997,99.422417,302900
2018-12-07,100.889999,102.849998,99.099998,99.769997,97.602829,226100
2018-12-10,99.430000,99.860001,98.220001,99.110001,96.957169,161100
2018-12-11,100.099998,101.019997,98.279999,98.669998,96.526711,192600
2018-12-12,100.099998,100.940002,99.750000,99.930000,97.759354,240900
2018-12-13,100.419998,101.269997,99.510002,100.320000,98.140884,167800
2018-12-14,100.040001,100.959999,99.129997,100.339996,98.160446,187100
2018-12-17,99.839996,100.650002,98.040001,98.639999,96.497375,313900
2018-12-18,99.430000,100.269997,97.269997,97.940002,95.812584,231000
2018-12-19,98.279999,98.839996,95.269997,95.589996,93.513626,268300
2018-12-20,95.510002,96.150002,93.669998,95.010002,92.946220,248100
2018-12-21,94.760002,96.610001,93.510002,93.550003,91.517944,588800
2018-12-24,92.860001,92.860001,89.669998,89.699997,87.751564,168300
2018-12-26,89.720001,92.010002,89.720001,91.769997,89.776588,394400
2018-12-27,90.699997,92.480003,90.010002,92.370003,90.363586,467500
2018-12-28,92.599998,93.910004,92.050003,92.699997,90.686401,437400
2018-12-31,92.820000,94.070000,92.660004,94.070000,92.026642,246900
2019-01-02,92.730003,92.730003,89.449997,90.180000,88.221146,517500
2019-01-03,88.970001,90.209999,88.260002,89.089996,87.154823,637200
2019-01-04,90.099998,91.900002,89.290001,91.070000,89.091812,433600
2019-01-07,90.599998,93.489998,90.580002,91.949997,89.952690,525400
2019-01-08,92.820000,94.099998,91.760002,93.519997,91.488579,379600
2019-01-09,93.860001,94.199997,93.209999,93.480003,91.449463,195700
2019-01-10,93.139999,94.820000,93.129997,94.580002,92.525574,205800
2019-01-11,94.669998,94.750000,93.430000,94.730003,92.672318,248200
2019-01-14,94.279999,94.849998,93.739998,93.959999,91.919029,210500
2019-01-15,93.970001,95.400002,93.900002,94.809998,92.750565,213900
2019-01-16,94.820000,95.349998,94.389999,94.709999,92.652740,187100
2019-01-17,94.389999,96.169998,94.379997,95.930000,93.846230,265500
2019-01-18,96.099998,97.970001,95.879997,97.690002,95.568008,237400
2019-01-22,97.419998,98.250000,95.120003,96.440002,94.345161,304000
2019-01-23,96.699997,97.769997,96.250000,97.379997,95.264748,266300
2019-01-24,97.250000,98.059998,96.709999,97.129997,95.020172,135300
2019-01-25,97.910004,98.349998,97.070000,97.389999,95.274536,116300
2019-01-28,97.389999,98.510002,97.279999,97.879997,95.753883,217900
2019-01-29,97.419998,98.419998,97.419998,97.940002,96.146568,161600
2019-01-30,98.099998,98.800003,97.620003,97.959999,96.166183,292500
2019-01-31,98.000000,99.279999,97.239998,99.120003,97.304955,346500
2019-02-01,99.330002,99.980003,99.050003,99.550003,97.727074,269600
2019-02-04,99.419998,99.889999,98.519997,99.849998,98.021591,137200
2019-02-05,99.949997,101.129997,99.419998,101.070000,99.219246,288000
2019-02-06,100.620003,102.000000,100.580002,101.589996,99.729729,206800
2019-02-07,101.129997,102.040001,100.839996,101.949997,100.083130,202100
2019-02-08,101.570000,102.309998,100.959999,101.389999,99.533386,184300
2019-02-11,101.879997,102.449997,101.239998,101.699997,99.837700,239100
2019-02-12,102.300003,102.690002,101.739998,102.320000,100.446358,230000
2019-02-13,102.709999,103.510002,102.260002,102.800003,100.917572,229700
2019-02-14,102.239998,103.029999,101.559998,101.769997,99.906418,234000
2019-02-15,102.320000,102.459999,101.349998,101.940002,100.073318,235800
2019-02-19,101.839996,102.029999,101.260002,101.550003,99.690468,378800
2019-02-20,101.470001,102.660004,101.309998,102.260002,100.387451,282100
2019-02-21,102.300003,104.000000,100.639999,103.120003,101.231705,508600
2019-02-22,102.480003,103.550003,101.239998,102.050003,100.181297,303400
2019-02-25,102.269997,102.599998,101.110001,101.559998,99.700272,336100
2019-02-26,101.209999,101.669998,100.930000,101.309998,99.454849,302500
2019-02-27,102.019997,102.300003,100.790001,101.410004,99.553024,375300
2019-02-28,101.260002,102.050003,100.970001,101.730003,99.867165,311500
2019-03-01,102.209999,102.209999,100.690002,100.809998,98.964005,245900
2019-03-04,101.250000,102.150002,100.629997,101.610001,99.749352,324000
2019-03-05,101.680000,102.269997,101.330002,101.470001,99.611923,211000
2019-03-06,101.529999,102.019997,100.430000,100.489998,98.649864,127500
2019-03-07,100.199997,100.629997,99.360001,99.879997,98.051041,151600
2019-03-08,99.209999,100.620003,99.209999,100.470001,98.630226,146300
2019-03-11,100.599998,102.070000,100.570000,102.019997,100.151840,175300
2019-03-12,102.059998,102.910004,102.050003,102.260002,100.387451,176700
2019-03-13,102.500000,103.339996,102.089996,102.279999,100.407097,287600
2019-03-14,102.339996,103.040001,101.809998,102.889999,101.005913,169400
2019-03-15,102.919998,103.580002,102.580002,103.050003,101.162994,278600
2019-03-18,103.220001,103.839996,102.849998,103.709999,101.810905,132800
2019-03-19,104.220001,104.589996,103.239998,103.599998,101.702919,188800
2019-03-20,103.419998,104.830002,102.860001,103.949997,102.046494,181300
2019-03-21,103.570000,105.680000,103.570000,105.540001,103.607384,194000
2019-03-22,105.260002,105.260002,103.500000,103.830002,101.928703,213200
2019-03-25,103.550003,104.970001,103.019997,104.510002,102.596260,163900
2019-03-26,105.000000,106.379997,104.699997,105.440002,103.509232,262300
2019-03-27,105.519997,106.489998,105.129997,105.519997,103.587746,179500
2019-03-28,105.760002,106.389999,105.419998,106.190002,104.245491,129900
2019-03-29,106.099998,106.680000,105.470001,106.389999,104.441818,337900
2019-04-01,106.910004,107.820000,106.209999,107.709999,105.737656,234000
2019-04-02,107.800003,107.800003,106.660004,107.220001,105.256630,194600
2019-04-03,107.610001,108.080002,107.160004,107.470001,105.502060,201200
2019-04-04,107.680000,108.160004,107.290001,108.099998,106.120514,164000
2019-04-05,107.570000,108.959999,107.570000,108.739998,106.748787,161400
2019-04-08,108.650002,109.269997,107.989998,108.989998,106.994217,149600
2019-04-09,108.389999,108.559998,107.519997,108.160004,106.179413,183400
2019-04-10,108.220001,109.300003,107.949997,109.040001,107.043297,166200
2019-04-11,109.290001,109.860001,108.980003,109.660004,107.651947,228900
2019-04-12,109.949997,110.699997,109.790001,110.309998,108.290047,185900
2019-04-15,110.339996,110.500000,109.489998,109.889999,107.877731,190500
2019-04-16,109.809998,109.970001,108.760002,109.620003,107.612679,197600
2019-04-17,109.680000,109.750000,107.589996,107.699997,105.727837,150500
2019-04-18,107.930000,108.379997,107.300003,108.209999,106.228500,214600
2019-04-22,108.250000,109.370003,108.250000,108.930000,106.935326,165800
2019-04-23,109.029999,110.529999,109.029999,110.059998,108.044617,220800
2019-04-24,109.970001,110.860001,109.940002,109.940002,107.926819,152200
2019-04-25,109.209999,109.970001,108.830002,109.449997,107.445786,132400
2019-04-26,109.709999,111.650002,109.699997,111.419998,109.379723,138900
2019-04-29,111.379997,111.720001,110.760002,111.320000,109.281548,137600
2019-04-30,110.750000,111.809998,109.930000,111.239998,109.557320,277600
2019-05-01,112.269997,114.660004,111.550003,112.809998,111.103569,336100
2019-05-02,112.809998,113.120003,111.620003,113.000000,111.290695,345200
2019-05-03,113.300003,114.139999,112.730003,113.849998,112.127838,310200
2019-05-06,112.540001,115.519997,112.540001,115.019997,113.280128,263000
2019-05-07,113.980003,114.680000,113.139999,113.970001,112.246017,159500
2019-05-08,113.779999,114.480003,113.309998,113.989998,112.265717,169400
2019-05-09,113.379997,113.790001,112.760002,113.000000,111.290695,259300
2019-05-10,112.720001,113.709999,112.180000,113.599998,111.881615,225100
2019-05-13,111.910004,113.169998,111.290001,112.800003,111.093712,160100
2019-05-14,113.389999,114.360001,112.889999,112.980003,111.270996,132600
2019-05-15,112.760002,113.769997,112.360001,113.239998,111.527054,116500
2019-05-16,113.379997,114.500000,113.260002,114.110001,112.383904,218800
2019-05-17,113.489998,114.459999,113.489998,113.779999,112.058891,151800
2019-05-20,113.190002,113.809998,112.830002,113.040001,111.330086,175600
2019-05-21,113.510002,113.889999,113.089996,113.480003,111.763428,156300
2019-05-22,113.769997,113.980003,113.000000,113.150002,111.438416,146800
2019-05-23,112.540001,113.690002,112.040001,112.959999,111.251289,119600
2019-05-24,113.290001,113.870003,112.750000,112.930000,111.221748,117700
2019-05-28,113.040001,113.620003,112.690002,112.900002,111.192207,259200
2019-05-29,112.540001,113.440002,112.279999,112.699997,110.995224,188200
2019-05-30,112.730003,113.629997,112.540001,113.510002,111.792969,128700
2019-05-31,112.529999,113.730003,111.500000,113.269997,111.556602,247400
2019-06-03,113.410004,115.000000,113.410004,114.029999,112.305107,297400
2019-06-04,114.699997,115.980003,113.680000,115.720001,113.969551,483400
2019-06-05,115.900002,117.180000,115.410004,117.129997,115.358208,392000
2019-06-06,117.209999,120.389999,117.209999,120.230003,118.411339,319800
2019-06-07,120.000000,122.599998,119.919998,121.919998,120.075752,427800
2019-06-10,122.190002,123.279999,121.629997,123.220001,121.356102,253200
2019-06-11,124.000000,124.449997,121.209999,122.580002,120.725784,365600
2019-06-12,122.989998,122.989998,121.190002,121.620003,119.780296,273400
2019-06-13,121.500000,122.099998,120.309998,120.720001,118.893906,166500
2019-06-14,120.459999,120.510002,119.570000,120.089996,118.273445,187300
2019-06-17,120.040001,120.839996,119.790001,120.169998,118.352234,136300
2019-06-18,120.589996,120.699997,119.379997,119.489998,117.682518,208300
2019-06-19,119.629997,120.000000,118.820000,119.410004,117.603737,340200
2019-06-20,120.889999,121.000000,118.279999,119.809998,117.997673,335100
2019-06-21,119.320000,119.849998,117.430000,119.379997,117.574181,603600
2019-06-24,119.500000,119.500000,118.480003,118.779999,116.983261,187700
2019-06-25,119.000000,121.790001,118.879997,121.059998,119.228760,300700
2019-06-26,121.239998,121.250000,119.099998,119.239998,117.436302,236700
2019-06-27,119.389999,121.809998,119.389999,121.550003,119.711357,247700
2019-06-28,121.620003,124.750000,121.620003,124.339996,122.459152,831100
2019-07-01,125.000000,126.199997,123.120003,124.269997,122.390213,322000
2019-07-02,124.370003,124.709999,123.220001,123.540001,121.671257,402400
2019-07-03,124.000000,125.919998,124.000000,125.919998,124.015244,188600
2019-07-05,125.209999,125.260002,123.010002,124.610001,122.725067,255300
2019-07-08,125.500000,125.500000,123.639999,123.989998,122.114449,199600
2019-07-09,123.790001,124.529999,123.790001,124.070000,122.193237,235000
2019-07-10,124.629997,125.790001,123.349998,123.580002,121.710648,169900
2019-07-11,123.269997,124.120003,123.010002,124.019997,122.143990,226400
2019-07-12,124.190002,124.190002,123.209999,123.410004,121.543221,241000
2019-07-15,123.150002,123.959999,122.690002,122.919998,121.060631,189600
2019-07-16,123.120003,123.360001,122.300003,123.160004,121.297012,230800
2019-07-17,123.120003,124.430000,123.120003,123.529999,121.661400,267300
2019-07-18,123.150002,124.449997,123.029999,124.360001,122.478851,185300
2019-07-19,124.709999,124.949997,123.360001,123.400002,121.533371,226000
2019-07-22,123.510002,123.889999,122.820000,123.160004,121.297012,153800
2019-07-23,123.889999,124.709999,123.379997,124.510002,122.626579,183600
2019-07-24,124.010002,124.550003,122.839996,123.290001,121.425041,215300
2019-07-25,123.000000,124.279999,122.680000,122.919998,121.060631,273700
2019-07-26,123.129997,124.769997,122.930000,124.489998,122.606880,198000
2019-07-29,124.449997,125.660004,123.540001,124.940002,123.050079,277400
2019-07-30,123.800003,124.570000,122.959999,123.809998,122.289536,221700
2019-07-31,123.489998,123.860001,119.940002,121.019997,119.533791,621400
2019-08-01,120.190002,120.190002,114.839996,117.559998,116.116295,533000
2019-08-02,116.610001,118.339996,115.650002,118.019997,116.570641,316600
2019-08-05,116.440002,119.029999,116.250000,117.080002,115.642189,462500
2019-08-06,117.550003,120.809998,117.379997,119.720001,118.249771,356400
2019-08-07,119.099998,122.260002,118.699997,121.660004,120.165947,268700
2019-08-08,122.480003,124.000000,121.589996,122.870003,121.361092,374300
2019-08-09,122.739998,123.230003,121.050003,121.080002,119.593056,186400
2019-08-12,121.019997,121.680000,119.919998,120.040001,118.565842,132900
2019-08-13,119.779999,121.809998,119.050003,121.220001,119.731346,216300
2019-08-14,120.010002,120.730003,118.989998,119.089996,117.627495,375800
2019-08-15,119.250000,120.250000,117.949997,118.330002,116.876839,238400
2019-08-16,118.910004,120.739998,117.949997,120.250000,118.773262,197800
2019-08-19,121.199997,121.480003,120.000000,120.220001,118.743629,206400
2019-08-20,120.099998,120.099998,118.459999,118.879997,117.420082,141800
2019-08-21,119.660004,119.830002,118.889999,119.330002,117.864555,298500
2019-08-22,119.830002,120.720001,119.040001,120.540001,119.059692,227100
2019-08-23,120.550003,121.330002,119.889999,120.260002,118.783142,296100
2019-08-26,120.720001,121.230003,119.910004,120.989998,119.504166,237100
2019-08-27,121.480003,121.830002,120.809998,121.500000,120.007904,183000
2019-08-28,121.489998,122.139999,120.629997,121.860001,120.363480,221100
2019-08-29,122.879997,123.440002,121.150002,121.690002,120.195572,184600
2019-08-30,122.379997,123.320000,121.230003,122.220001,120.719055,183700
2019-09-03,120.809998,121.080002,118.570000,119.650002,118.180626,262000
2019-09-04,120.730003,122.050003,120.190002,121.940002,120.442505,160800
2019-09-05,122.989998,123.209999,120.980003,121.199997,119.711586,230100
2019-09-06,120.959999,121.839996,120.320000,120.879997,119.395515,239300
2019-09-09,121.570000,121.570000,118.769997,119.099998,117.637375,232900
2019-09-10,118.980003,119.320000,116.120003,119.110001,117.647255,258200
2019-09-11,118.900002,119.529999,116.720001,118.629997,117.173157,231700
2019-09-12,119.080002,119.699997,117.980003,118.050003,116.600281,163300
2019-09-13,118.550003,118.970001,117.660004,118.400002,116.945976,269900
2019-09-16,117.720001,117.720001,115.870003,116.480003,115.049561,192100
2019-09-17,116.199997,117.860001,116.070000,117.010002,115.573051,216700
2019-09-18,116.889999,118.949997,116.559998,118.300003,116.847198,253400
2019-09-19,118.330002,118.949997,117.639999,117.849998,116.402733,304200
2019-09-20,118.139999,119.019997,117.559998,118.050003,116.600281,527900
2019-09-23,117.610001,118.970001,117.610001,118.099998,116.649658,164300
2019-09-24,118.599998,119.489998,118.250000,118.510002,117.054619,187100
2019-09-25,118.709999,119.440002,118.669998,119.120003,117.657143,202100
2019-09-26,119.570000,119.680000,118.519997,118.919998,117.459595,117900
2019-09-27,119.209999,119.309998,118.059998,118.669998,117.212662,149100
2019-09-30,118.949997,119.410004,117.839996,118.449997,116.995354,219700
2019-10-01,119.290001,119.730003,117.500000,117.669998,116.224937,143300
2019-10-02,117.000000,117.019997,115.059998,115.349998,113.933426,225600
2019-10-03,115.000000,115.230003,113.779999,114.989998,113.577850,241100
2019-10-04,115.309998,117.620003,115.089996,117.330002,115.889114,162400
2019-10-07,116.690002,117.449997,116.239998,116.559998,115.128571,216100
2019-10-08,116.010002,117.760002,114.510002,114.779999,113.370430,221900
2019-10-09,115.820000,116.889999,115.379997,116.480003,115.049561,134700
2019-10-10,116.480003,117.239998,115.730003,116.309998,114.881645,102400
2019-10-11,116.919998,118.000000,116.239998,116.330002,114.901405,213700
2019-10-14,116.320000,116.879997,115.739998,115.849998,114.427284,131900
2019-10-15,116.339996,116.639999,115.050003,115.180000,113.765518,182500
2019-10-16,115.139999,115.599998,114.400002,115.470001,114.051956,213700
2019-10-17,115.570000,117.080002,115.500000,116.550003,115.118698,153800
2019-10-18,116.419998,118.000000,116.419998,117.779999,116.333588,219100
2019-10-21,118.370003,119.110001,117.800003,117.900002,116.452118,142900
2019-10-22,118.029999,118.050003,116.620003,116.660004,115.227348,85400
2019-10-23,116.529999,117.930000,116.500000,117.370003,115.928635,104800
2019-10-24,117.449997,118.129997,116.739998,117.339996,115.898994,122500
2019-10-25,117.209999,118.620003,117.209999,117.879997,116.432358,120300
2019-10-28,117.959999,118.800003,117.839996,118.199997,116.748421,134100
2019-10-29,117.449997,119.129997,117.449997,118.510002,117.412224,136600
2019-10-30,118.580002,119.629997,117.769997,119.250000,118.145370,148200
2019-10-31,119.040001,119.629997,117.620003,118.150002,117.055557,316000
2019-11-01,113.669998,115.559998,109.540001,110.790001,109.763741,583300
2019-11-04,111.010002,111.760002,108.410004,108.669998,107.663376,553700
2019-11-05,109.209999,110.250000,108.430000,108.660004,107.653473,385300
2019-11-06,108.669998,109.809998,108.419998,109.489998,108.475777,369800
2019-11-07,109.529999,110.529999,108.910004,109.400002,108.386612,189400
2019-11-08,109.309998,110.930000,108.870003,109.000000,107.990318,303500
2019-11-11,108.480003,109.760002,108.480003,108.580002,107.574203,181500
2019-11-12,108.639999,109.300003,108.160004,108.220001,107.217545,185400
2019-11-13,108.320000,110.070000,108.019997,109.620003,108.604576,385400
2019-11-14,109.480003,110.580002,109.480003,110.470001,109.446701,224000
2019-11-15,110.730003,110.730003,109.699997,109.959999,108.941422,307300
2019-11-18,109.919998,110.949997,109.879997,110.339996,109.317902,352100
2019-11-19,110.730003,111.400002,110.449997,110.500000,109.476425,258700
2019-11-20,110.120003,111.849998,110.120003,110.699997,109.674568,961400
2019-11-21,111.230003,112.050003,110.180000,111.300003,110.269020,244200
2019-11-22,111.650002,111.669998,110.000000,110.120003,109.099953,151700
2019-11-25,110.260002,111.059998,110.169998,110.949997,109.922249,264400
2019-11-26,111.519997,112.650002,110.970001,112.559998,111.517334,221900
2019-11-27,112.989998,113.580002,112.629997,112.830002,111.784836,145500
2019-11-29,112.639999,113.209999,111.940002,112.120003,111.081413,89300
2019-12-02,112.519997,112.720001,111.620003,112.010002,110.972435,273300
2019-12-03,111.510002,113.309998,111.139999,112.709999,111.665947,246400
2019-12-04,112.739998,113.480003,111.739998,111.779999,110.744560,284600
2019-12-05,111.889999,112.660004,111.650002,111.949997,110.912987,243700
2019-12-06,112.790001,113.000000,111.800003,112.080002,111.041794,322100
2019-12-09,112.309998,112.839996,111.690002,112.629997,111.586693,255000
2019-12-10,112.470001,112.830002,111.339996,111.940002,110.903084,219500
2019-12-11,111.970001,112.769997,111.900002,112.570000,111.527245,141100
2019-12-12,112.510002,114.440002,112.510002,114.180000,113.122330,407000
2019-12-13,113.980003,115.389999,113.330002,113.970001,112.914276,380400
2019-12-16,114.459999,114.709999,113.300003,114.320000,113.261040,194200
2019-12-17,114.129997,114.750000,113.059998,113.349998,112.300018,248900
2019-12-18,113.349998,113.370003,112.360001,113.080002,112.032532,204000
2019-12-19,113.160004,113.480003,112.800003,113.260002,112.210861,172100
2019-12-20,113.720001,115.139999,113.720001,114.959999,113.895103,473500
2019-12-23,114.930000,115.370003,114.230003,115.370003,114.301315,144300
2019-12-24,115.309998,115.639999,114.680000,114.730003,113.667236,63800
2019-12-26,114.739998,114.860001,113.800003,114.820000,113.756409,110900
2019-12-27,115.220001,115.349998,114.150002,115.019997,113.954552,87800
2019-12-30,114.940002,115.800003,114.669998,115.760002,114.687698,193000
2019-12-31,115.720001,116.199997,115.019997,115.620003,114.549004,310700
2020-01-02,115.500000,116.480003,112.930000,113.680000,112.626961,362700
2020-01-03,112.809998,114.839996,112.809998,114.040001,112.983635,221500
2020-01-06,113.660004,114.489998,113.559998,114.050003,112.993546,282400
2020-01-07,113.559998,114.010002,112.739998,112.910004,111.864098,234700
2020-01-08,113.080002,114.180000,113.080002,113.220001,112.171227,331000
2020-01-09,113.769997,115.059998,113.320000,114.660004,113.597900,329100
2020-01-10,114.660004,116.169998,114.570000,115.790001,114.717422,196800
2020-01-13,115.489998,116.559998,115.370003,116.199997,115.123619,248500
2020-01-14,116.250000,116.320000,115.139999,116.129997,115.054268,160800
2020-01-15,116.320000,117.230003,115.900002,116.709999,115.628891,241500
2020-01-16,117.209999,118.269997,117.180000,118.220001,117.124916,187300
2020-01-17,118.309998,118.610001,117.059998,117.320000,116.233246,190600
2020-01-21,116.660004,116.769997,115.349998,115.629997,114.558899,189300
2020-01-22,115.690002,116.430000,115.480003,115.669998,114.598526,141800
2020-01-23,115.330002,119.019997,114.769997,117.370003,116.282784,301000
2020-01-24,117.400002,118.160004,116.620003,117.120003,116.035103,213000
2020-01-27,115.540001,117.260002,115.220001,116.489998,115.410934,239100
2020-01-28,116.410004,116.580002,115.570000,115.970001,115.251923,178600
2020-01-29,115.910004,117.080002,115.529999,115.940002,115.222115,211200
2020-01-30,115.019997,117.010002,114.330002,116.540001,115.818398,153200
2020-01-31,115.910004,116.389999,115.139999,115.510002,114.794777,300700
2020-02-03,115.610001,117.540001,115.510002,117.239998,116.514061,271300
2020-02-04,117.790001,118.489998,116.199997,116.949997,116.225853,313700
2020-02-05,117.139999,118.290001,116.750000,117.870003,117.140167,188100
2020-02-06,118.050003,118.949997,117.459999,117.529999,116.802261,247800
2020-02-07,117.070000,117.680000,116.220001,116.699997,115.977402,144500
2020-02-10,116.419998,117.099998,115.480003,115.800003,115.082977,142600
2020-02-11,116.019997,116.889999,115.400002,116.050003,115.331436,197600
2020-02-12,116.129997,116.209999,114.300003,114.709999,113.999725,448200
2020-02-13,114.580002,116.550003,113.690002,116.199997,115.480499,200400
2020-02-14,116.599998,117.750000,116.169998,116.669998,115.947594,216800
2020-02-18,116.470001,116.629997,115.080002,115.260002,114.546326,271300
2020-02-19,115.370003,116.620003,114.720001,115.010002,114.297874,289200
2020-02-20,114.610001,115.669998,113.739998,114.930000,114.218361,378400
2020-02-21,111.519997,114.650002,109.160004,111.980003,111.286636,720600
2020-02-24,110.500000,111.209999,109.169998,109.209999,108.533783,447900
2020-02-25,109.220001,109.570000,106.709999,106.940002,106.277840,641400
2020-02-26,104.000000,106.559998,102.769997,104.680000,104.031830,504500
2020-02-27,103.400002,104.760002,101.949997,102.400002,101.765953,670500
2020-02-28,99.730003,102.209999,99.320000,101.070000,100.444183,690800
2020-03-02,101.620003,103.760002,100.809998,103.580002,102.938644,331800
2020-03-03,103.790001,105.720001,102.199997,102.760002,102.123726,353300
2020-03-04,105.389999,107.629997,104.440002,107.440002,106.774742,294500
2020-03-05,105.339996,105.800003,102.639999,103.980003,103.336174,273800
2020-03-06,101.610001,107.410004,101.330002,107.300003,106.635612,624000
2020-03-09,102.739998,105.000000,99.480003,101.449997,100.821831,597100
2020-03-10,103.599998,103.989998,99.389999,103.989998,103.346100,522300
2020-03-11,101.669998,101.669998,97.919998,99.080002,98.466507,705800
2020-03-12,92.480003,96.400002,87.500000,94.400002,93.815491,843100
2020-03-13,98.080002,99.440002,91.120003,96.389999,95.793167,596000
2020-03-16,87.400002,94.480003,87.400002,87.879997,87.335854,667400
2020-03-17,89.949997,96.949997,89.480003,96.449997,95.852791,595700
2020-03-18,91.690002,96.980003,90.339996,96.750000,96.150932,762000
2020-03-19,96.489998,101.220001,93.589996,98.879997,98.267738,354700
2020-03-20,98.809998,99.980003,89.129997,92.510002,91.937187,727300
2020-03-23,92.059998,93.239998,79.839996,83.930000,83.410316,698800
2020-03-24,87.269997,88.320000,82.690002,88.059998,87.514740,535600
2020-03-25,89.000000,93.660004,86.220001,90.180000,89.621620,576200
2020-03-26,90.849998,97.339996,90.220001,96.199997,95.604332,447000
2020-03-27,94.540001,95.839996,92.099998,94.000000,93.417969,482000
2020-03-30,94.970001,100.959999,94.370003,100.480003,99.857841,435400
2020-03-31,100.519997,102.750000,97.440002,99.540001,98.923660,531000
2020-04-01,97.709999,98.680000,95.440002,96.209999,95.614273,296500
2020-04-02,95.809998,97.139999,94.120003,96.150002,95.554649,455700
2020-04-03,94.879997,97.419998,93.360001,94.190002,93.606789,370300
2020-04-06,97.070000,101.180000,97.070000,100.760002,100.136108,503200
2020-04-07,103.550003,103.550003,99.220001,101.120003,100.493874,378000
2020-04-08,102.650002,105.290001,100.639999,104.110001,103.465363,328500
2020-04-09,105.040001,108.029999,104.230003,107.269997,106.605797,399300
2020-04-13,106.989998,107.430000,102.300003,102.349998,101.716263,234000
2020-04-14,104.559998,105.370003,103.360001,104.019997,103.375916,239700
2020-04-15,102.279999,104.190002,100.610001,100.930000,100.305054,441400
2020-04-16,103.029999,103.029999,99.680000,101.849998,101.219353,294000
2020-04-17,103.860001,105.019997,102.400002,102.940002,102.302605,256200
2020-04-20,101.860001,107.940002,101.129997,106.940002,106.277840,856400
2020-04-21,105.849998,106.989998,104.120003,106.120003,105.462921,475500
2020-04-22,106.989998,107.040001,104.120003,106.300003,105.641800,436400
2020-04-23,106.620003,107.320000,104.949997,105.019997,104.369728,347600
2020-04-24,105.410004,105.410004,103.089996,104.120003,103.475304,377000
2020-04-27,109.330002,114.099998,106.879997,112.580002,111.882919,457700
2020-04-28,112.599998,114.660004,110.989998,111.180000,110.846039,274600
2020-04-29,112.559998,113.629997,109.820000,110.080002,109.749344,236600
2020-04-30,108.989998,110.070000,106.339996,107.080002,106.758354,730600
2020-05-01,110.559998,110.559998,104.709999,106.139999,105.821182,506200
2020-05-04,105.529999,107.330002,105.080002,106.809998,106.489166,324300
2020-05-05,106.779999,107.629997,105.400002,105.559998,105.242920,332500
2020-05-06,106.769997,107.050003,104.760002,104.860001,104.545021,234000
2020-05-07,105.519997,106.889999,105.139999,105.470001,105.153191,285200
2020-05-08,106.980003,107.989998,106.559998,107.529999,107.207001,259700
2020-05-11,106.660004,107.510002,106.080002,106.309998,105.990669,344000
2020-05-12,106.430000,106.430000,103.849998,103.949997,103.637756,233300
2020-05-13,103.389999,103.389999,101.650002,102.419998,102.112350,267100
2020-05-14,101.010002,102.620003,99.110001,102.459999,102.152229,246200
2020-05-15,101.470001,101.699997,100.050003,101.500000,101.195114,476400
2020-05-18,104.070000,105.150002,102.949997,104.150002,103.837158,304500
2020-05-19,103.790001,105.750000,103.160004,103.730003,103.418419,214700
2020-05-20,104.449997,105.519997,104.080002,104.410004,104.096382,146200
2020-05-21,104.440002,105.709999,104.440002,105.089996,104.774330,233900
2020-05-22,104.970001,105.250000,103.709999,105.099998,104.784302,151200
2020-05-26,107.339996,110.190002,106.779999,109.550003,109.220940,332200
2020-05-27,111.070000,112.650002,110.349998,112.550003,112.211929,290400
2020-05-28,113.330002,113.330002,110.940002,111.599998,111.264778,233600
2020-05-29,111.099998,111.529999,109.709999,111.389999,111.055412,215300
2020-06-01,111.279999,111.879997,110.599998,111.419998,111.085320,277000
2020-06-02,111.750000,112.470001,110.940002,112.070000,111.733368,224900
2020-06-03,112.699997,114.099998,112.699997,113.279999,112.939728,196600
2020-06-04,113.500000,113.500000,111.019997,112.139999,111.803154,182500
2020-06-05,113.800003,114.279999,112.910004,113.400002,113.059372,235500
2020-06-08,112.820000,114.000000,112.290001,113.580002,113.238831,244700
2020-06-09,112.779999,113.449997,111.910004,112.470001,112.132164,292100
2020-06-10,113.000000,113.000000,110.820000,111.639999,111.304657,366600
2020-06-11,110.000000,110.610001,104.209999,104.250000,103.936859,376900
2020-06-12,106.690002,107.529999,103.080002,105.360001,105.043526,247300
2020-06-15,103.440002,106.540001,103.070000,105.410004,105.093376,235900
2020-06-16,108.300003,109.089996,106.860001,107.389999,107.067421,252600
2020-06-17,108.190002,108.650002,106.370003,106.910004,106.588867,208800
2020-06-18,106.279999,107.970001,105.970001,106.989998,106.668625,217800
2020-06-19,107.209999,107.989998,106.099998,107.599998,107.276794,303700
2020-06-22,106.940002,107.669998,105.500000,107.550003,107.226944,241900
2020-06-23,108.459999,108.459999,106.919998,107.440002,107.117279,228300
2020-06-24,106.580002,107.519997,105.849998,105.940002,105.621780,433900
2020-06-25,105.410004,107.629997,103.779999,107.599998,107.276794,263600
2020-06-26,107.120003,108.690002,106.169998,107.720001,107.396431,924200
2020-06-29,108.239998,110.190002,107.889999,109.250000,108.921837,189300
2020-06-30,109.129997,112.279999,109.129997,111.980003,111.643639,421800
2020-07-01,111.910004,112.669998,110.949997,112.480003,112.142136,247900
2020-07-02,113.440002,115.010002,113.440002,114.970001,114.624657,271400
2020-07-06,115.989998,116.660004,114.180000,115.260002,114.913788,330900
2020-07-07,114.639999,116.000000,114.180000,115.150002,114.804115,346500
2020-07-08,114.790001,115.750000,112.589996,112.930000,112.590782,205900
2020-07-09,113.160004,114.139999,111.410004,113.760002,113.418289,307200
2020-07-10,114.169998,115.169998,112.400002,114.949997,114.604713,244500
2020-07-13,114.959999,116.269997,113.269997,113.430000,113.089279,289000
2020-07-14,113.760002,116.500000,113.690002,116.309998,115.960625,193600
2020-07-15,117.440002,118.290001,116.540001,117.900002,117.545853,326900
2020-07-16,118.040001,118.489998,116.800003,117.239998,116.887833,252900
2020-07-17,118.000000,119.709999,117.339996,119.400002,119.041351,249000
2020-07-20,119.400002,119.750000,118.269997,119.290001,118.931679,183200
2020-07-21,119.580002,119.870003,117.669998,118.180000,117.825012,394300
2020-07-22,118.250000,118.980003,117.410004,118.500000,118.144051,414600
2020-07-23,118.389999,119.230003,118.089996,118.440002,118.084236,286700
2020-07-24,119.000000,119.790001,118.379997,118.849998,118.492996,244700
2020-07-27,118.830002,120.449997,118.500000,119.849998,119.489998,281800
2020-07-28,119.809998,119.809998,117.779999,118.050003,118.050003,208600
2020-07-29,118.720001,119.410004,117.330002,118.809998,118.809998,251200
2020-07-30,117.750000,118.910004,116.699997,117.910004,117.910004,359800
2020-07-31,115.000000,117.900002,111.220001,115.199997,115.199997,668100
2020-08-03,116.849998,119.680000,114.849998,118.660004,118.660004,292900
2020-08-04,118.949997,120.180000,118.220001,118.620003,118.620003,233100
2020-08-05,119.559998,120.669998,118.220001,118.360001,118.360001,164700
2020-08-06,118.820000,120.110001,116.680000,117.660004,117.660004,246500
2020-08-07,117.070000,119.370003,116.779999,119.250000,119.250000,202300
2020-08-10,119.580002,119.580002,116.900002,117.000000,117.000000,204700
2020-08-11,118.019997,119.349998,116.529999,116.739998,116.739998,214100
2020-08-12,116.919998,118.570000,116.750000,118.089996,118.089996,171800
2020-08-13,117.239998,119.470001,117.239998,118.519997,118.519997,213800
2020-08-14,117.879997,119.639999,117.699997,118.489998,118.489998,134600
2020-08-17,119.139999,119.919998,118.010002,118.250000,118.250000,160500
2020-08-18,117.910004,118.639999,116.769997,117.879997,117.879997,171500
2020-08-19,118.699997,119.370003,117.320000,117.690002,117.690002,145600
2020-08-20,117.059998,118.129997,116.599998,117.550003,117.550003,159400
2020-08-21,117.120003,118.349998,116.400002,117.800003,117.800003,199200
2020-08-24,118.199997,119.760002,118.199997,119.110001,119.110001,224000
2020-08-25,119.540001,119.540001,117.930000,118.129997,118.129997,114400
2020-08-26,117.989998,119.000000,117.559998,118.599998,118.599998,120000
2020-08-27,118.629997,120.620003,118.500000,120.050003,120.050003,209800
2020-08-28,119.699997,119.699997,118.000000,118.129997,118.129997,295200
2020-08-31,118.580002,119.160004,117.779999,118.389999,118.389999,182500
2020-09-01,117.940002,119.639999,117.940002,119.500000,119.500000,133900
2020-09-02,119.750000,122.440002,118.970001,122.260002,122.260002,153800
2020-09-03,122.279999,122.279999,118.500000,119.169998,119.169998,227200
2020-09-04,120.040001,120.300003,116.489998,118.720001,118.720001,224200
2020-09-08,118.129997,118.129997,116.040001,116.059998,116.059998,164600
2020-09-09,116.639999,118.629997,116.639999,117.889999,117.889999,154000
2020-09-10,118.169998,118.910004,116.709999,117.190002,117.190002,253500
2020-09-11,117.879997,118.709999,117.129997,118.360001,118.360001,124600
2020-09-14,119.370003,120.059998,118.470001,119.080002,119.080002,129000
2020-09-15,119.440002,119.800003,118.120003,118.330002,118.330002,125600
2020-09-16,119.580002,119.580002,117.570000,117.769997,117.769997,232000
2020-09-17,116.500000,117.239998,115.080002,115.959999,115.959999,354500
2020-09-18,116.580002,116.750000,114.230003,115.040001,115.040001,555700
2020-09-21,113.599998,114.040001,111.820000,113.449997,113.449997,251500